{
  "AcquisitionMatrixPE": 64,
  "AcquisitionNumber": 1,
  "AcquisitionTime": "15:07:11.820000",
  "BandwidthPerPixelPhaseEncode": 33.967,
  "BaseResolution": 64,
  "CoilCombinationMethod": "Sum of Squares",
  "CoilString": "C:HEA;HEP",
  "ConversionSoftware": "dcm2niix",
  "ConversionSoftwareVersion": "v1.0.20220720",
  "DerivedVendorReportedEchoSpacing": 0.000460005,
  "DeviceSerialNumber": "35193",
  "DwellTime": 3.1e-06,
  "EchoTime": 0.03,
  "EffectiveEchoSpacing": 0.000460005,
  "FlipAngle": 90,
  "HeudiconvVersion": "1.1.6",
  "ImageOrientationPatientDICOM": [1, 0, 0, 0, 1, 0],
  "ImageOrientationText": "Tra",
  "ImageType": [
    "ORIGINAL",
    "PRIMARY",
    "M",
    "ND",
    "MOSAIC"
],
  "ImagingFrequency": 123.254,
  "InPlanePhaseEncodingDirectionDICOM": "COL",
  "InstitutionAddress": "Xinjiekouwai Street No 19,Beijing,Haidian District,CN,100875",
  "InstitutionName": "Beijing Normal Universtiy/4C3F54/",
  "InstitutionalDepartmentName": "Department",
  "MRAcquisitionType": "2D",
  "MagneticFieldStrength": 3,
  "Manufacturer": "Siemens",
  "ManufacturersModelName": "TrioTim",
  "MatrixCoilMode": "SENSE",
  "Modality": "MR",
  "NonlinearGradientCorrection": false,
  "PartialFourier": 1,
  "PatientPosition": "HFS",
  "PercentPhaseFOV": 100,
  "PercentSampling": 100,
  "PhaseEncodingDirection": "j-",
  "PhaseEncodingSteps": 64,
  "PhaseResolution": 1,
  "PixelBandwidth": 2520,
  "ProcedureStepDescription": "BNU_cst_2015^Guo.TaoMei",
  "ProtocolName": "ge_func_3x3x4_164",
  "PulseSequenceDetails": "%SiemensSeq%\\ep2d_bold",
  "ReceiveCoilName": "HeadMatrix",
  "ReconMatrixPE": 64,
  "RepetitionTime": 2,
  "SAR": 0.198458,
  "ScanOptions": "FS",
  "ScanningSequence": "EP",
  "SequenceName": "*epfid2d1_64",
  "SequenceVariant": "SK",
  "SeriesDescription": "ge_func_3x3x4_164",
  "SeriesNumber": 2,
  "ShimSetting": [-4503, -19606, -9710, 1098, 34, -610, 12, -26],
  "SliceThickness": 4,
  "SliceTiming": [0, 1.035, 0.06, 1.095, 0.1225, 1.155, 0.1825, 1.2175, 0.2425, 1.2775, 0.305, 1.3375, 0.365, 1.4, 0.425, 1.46, 0.4875, 1.52, 0.5475, 1.5825, 0.6075, 1.6425, 0.67, 1.7025, 0.73, 1.765, 0.79, 1.825, 0.8525, 1.885, 0.9125, 1.9475, 0.9725],
  "SoftwareVersions": "syngo MR B17",
  "SpacingBetweenSlices": 4.6,
  "StationName": "MRC35193",
  "TaskName": "LanguageControl",
  "TotalReadoutTime": 0.0289803,
  "TxRefAmp": 329.411,
  "dcmmeta_affine": [
    [-3.125, 0.0, 0.0, 100.0],
    [0.0, 3.125, 0.0, -88.77861785888672],
    [0.0, 0.0, 4.599999904632568, -41.21445846557617],
    [0.0, 0.0, 0.0, 1.0]
],
  "dcmmeta_reorient_transform": [
    [0.0, -1.0, 0.0, 63.0],
    [1.0, 0.0, 0.0, 0.0],
    [0.0, 0.0, 1.0, 0.0],
    [0.0, 0.0, 0.0, 1.0]
],
  "dcmmeta_shape": [64, 64, 33, 164],
  "dcmmeta_slice_dim": 2,
  "dcmmeta_version": 0.6,
  "global": {
    "const": {
      "AcquisitionMatrix": [64, 0, 0, 64],
      "AngioFlag": "N",
      "BitsAllocated": 16,
      "BitsStored": 12,
      "Columns": 384,
      "EchoNumbers": 1,
      "EchoTime": 30.0,
      "EchoTrainLength": 1,
      "FlipAngle": 90.0,
      "HighBit": 11,
      "ImageOrientationPatient": [1.0, 0.0, 0.0, 0.0, 1.0, 0.0],
      "ImagePositionPatient": [-600.0, -608.09638595581, -41.214458465576],
      "ImageType": [
        "ORIGINAL",
        "PRIMARY",
        "M",
        "ND",
        "MOSAIC"
],
      "ImagedNucleus": "1H",
      "ImagingFrequency": 123.253649,
      "InPlanePhaseEncodingDirection": "COL",
      "MRAcquisitionType": "2D",
      "MagneticFieldStrength": 3.0,
      "Manufacturer": "SIEMENS",
      "ManufacturerModelName": "TrioTim",
      "Modality": "MR",
      "NumberOfAverages": 1.0,
      "NumberOfPhaseEncodingSteps": 64,
      "PercentPhaseFieldOfView": 100.0,
      "PercentSampling": 100.0,
      "PerformedProcedureStepStartTime": "150314.375000",
      "PhotometricInterpretation": "MONOCHROME2",
      "PixelBandwidth": 2520.0,
      "PixelRepresentation": 0,
      "PixelSpacing": [3.125, 3.125],
      "ProtocolName": "ge_func_3x3x4_164",
      "RepetitionTime": 2000.0,
      "Rows": 384,
      "SAR": 0.19845756087825,
      "SamplesPerPixel": 1,
      "ScanOptions": "FS",
      "ScanningSequence": "EP",
      "SequenceName": "*epfid2d1_64",
      "SequenceVariant": "SK",
      "SeriesDescription": "ge_func_3x3x4_164",
      "SeriesNumber": 2,
      "SeriesTime": "150759.031000",
      "SliceLocation": -41.214458465576,
      "SliceThickness": 4.0,
      "SmallestImagePixelValue": 0,
      "SoftwareVersions": "syngo MR B17",
      "SpacingBetweenSlices": 4.6000000238419,
      "SpecificCharacterSet": "ISO_IR 100",
      "StudyID": "1",
      "StudyTime": "150314.328000",
      "TransmitCoilName": "Body",
      "VariableFlipAngleFlag": "N",
      "WindowCenterWidthExplanation": "Algo1",
      "dBdt": 0.0},
    "slices": {}
  },
  "time": {
    "samples": {
      "AcquisitionNumber": [1, 2, 3, 4, 5, 6, 7, 8, 9, 10, 11, 12, 13, 14, 15, 16, 17, 18, 19, 20, 21, 22, 23, 24, 25, 26, 27, 28, 29, 30, 31, 32, 33, 34, 35, 36, 37, 38, 39, 40, 41, 42, 43, 44, 45, 46, 47, 48, 49, 50, 51, 52, 53, 54, 55, 56, 57, 58, 59, 60, 61, 62, 63, 64, 65, 66, 67, 68, 69, 70, 71, 72, 73, 74, 75, 76, 77, 78, 79, 80, 81, 82, 83, 84, 85, 86, 87, 88, 89, 90, 91, 92, 93, 94, 95, 96, 97, 98, 99, 100, 101, 102, 103, 104, 105, 106, 107, 108, 109, 110, 111, 112, 113, 114, 115, 116, 117, 118, 119, 120, 121, 122, 123, 124, 125, 126, 127, 128, 129, 130, 131, 132, 133, 134, 135, 136, 137, 138, 139, 140, 141, 142, 143, 144, 145, 146, 147, 148, 149, 150, 151, 152, 153, 154, 155, 156, 157, 158, 159, 160, 161, 162, 163, 164],
      "AcquisitionTime": ["150711.820000", "150713.827500", "150715.837500", "150717.845000", "150719.852500", "150721.860000", "150723.867500", "150725.877500", "150727.885000", "150729.892500", "150731.900000", "150733.907500", "150735.917500", "150737.925000", "150739.932500", "150741.940000", "150743.950000", "150745.957500", "150747.965000", "150749.972500", "150751.980000", "150753.990000", "150755.997500", "150758.005000", "150800.012500", "150802.020000", "150804.030000", "150806.037500", "150808.045000", "150810.052500", "150812.062500", "150814.070000", "150816.077500", "150818.085000", "150820.092500", "150822.102500", "150824.110000", "150826.117500", "150828.125000", "150830.132500", "150832.142500", "150834.150000", "150836.157500", "150838.165000", "150840.175000", "150842.182500", "150844.190000", "150846.197500", "150848.205000", "150850.215000", "150852.222500", "150854.230000", "150856.237500", "150858.245000", "150900.255000", "150902.262500", "150904.270000", "150906.277500", "150908.285000", "150910.295000", "150912.302500", "150914.310000", "150916.317500", "150918.327500", "150920.335000", "150922.342500", "150924.350000", "150926.357500", "150928.367500", "150930.375000", "150932.382500", "150934.390000", "150936.397500", "150938.407500", "150940.415000", "150942.422500", "150944.430000", "150946.440000", "150948.447500", "150950.455000", "150952.462500", "150954.470000", "150956.480000", "150958.487500", "151000.495000", "151002.502500", "151004.510000", "151006.520000", "151008.527500", "151010.535000", "151012.542500", "151014.552500", "151016.560000", "151018.567500", "151020.575000", "151022.582500", "151024.592500", "151026.600000", "151028.607500", "151030.615000", "151032.622500", "151034.632500", "151036.640000", "151038.647500", "151040.655000", "151042.665000", "151044.672500", "151046.680000", "151048.687500", "151050.695000", "151052.705000", "151054.712500", "151056.720000", "151058.727500", "151100.735000", "151102.745000", "151104.752500", "151106.760000", "151108.767500", "151110.775000", "151112.785000", "151114.792500", "151116.800000", "151118.807500", "151120.817500", "151122.825000", "151124.832500", "151126.840000", "151128.847500", "151130.857500", "151132.865000", "151134.872500", "151136.880000", "151138.887500", "151140.897500", "151142.905000", "151144.912500", "151146.920000", "151148.930000", "151150.937500", "151152.945000", "151154.952500", "151156.960000", "151158.970000", "151200.977500", "151202.985000", "151204.992500", "151207.000000", "151209.010000", "151211.017500", "151213.025000", "151215.032500", "151217.042500", "151219.050000", "151221.057500", "151223.065000", "151225.072500", "151227.082500", "151229.090000", "151231.097500", "151233.105000", "151235.112500", "151237.122500", "151239.130000"],
      "ContentTime": ["150759.031000", "150759.031000", "150759.046000", "150759.046000", "150759.046000", "150759.062000", "150759.062000", "150759.062000", "150759.062000", "150759.062000", "150759.062000", "150759.062000", "150759.062000", "150759.078000", "150759.078000", "150759.078000", "150759.078000", "150759.078000", "150759.078000", "150759.078000", "150759.078000", "150759.093000", "150759.093000", "150839.015000", "150839.015000", "150839.015000", "150839.015000", "150839.015000", "150839.015000", "150839.031000", "150839.031000", "150839.031000", "150839.031000", "150839.031000", "150839.046000", "150839.046000", "150839.046000", "150839.046000", "150839.046000", "150839.046000", "150839.046000", "150839.046000", "150839.062000", "150859.015000", "150859.015000", "150859.015000", "150859.015000", "150859.015000", "150859.015000", "150859.015000", "150859.031000", "150859.031000", "150859.031000", "150939.015000", "150939.015000", "150939.015000", "150939.015000", "150939.015000", "150939.015000", "150939.031000", "150939.031000", "150939.031000", "150939.031000", "150939.031000", "150939.031000", "150939.031000", "150939.031000", "150939.046000", "150939.046000", "150939.046000", "150939.046000", "150939.046000", "150939.046000", "151019.015000", "151019.015000", "151019.015000", "151019.015000", "151019.015000", "151019.015000", "151019.031000", "151019.031000", "151019.031000", "151019.031000", "151019.046000", "151019.046000", "151019.046000", "151019.046000", "151019.046000", "151019.046000", "151019.046000", "151019.046000", "151019.062000", "151019.062000", "151059.015000", "151059.015000", "151059.015000", "151059.015000", "151059.015000", "151059.015000", "151059.031000", "151059.031000", "151059.031000", "151059.031000", "151059.031000", "151059.031000", "151059.031000", "151059.031000", "151059.046000", "151059.046000", "151059.046000", "151059.046000", "151059.046000", "151059.046000", "151139.015000", "151139.015000", "151139.015000", "151139.015000", "151139.015000", "151139.015000", "151139.031000", "151139.031000", "151139.031000", "151139.031000", "151139.046000", "151139.046000", "151139.046000", "151139.046000", "151139.046000", "151139.046000", "151139.046000", "151139.046000", "151139.062000", "151139.062000", "151219.015000", "151219.015000", "151219.015000", "151219.031000", "151219.031000", "151219.031000", "151219.031000", "151219.031000", "151219.046000", "151219.046000", "151219.046000", "151219.046000", "151219.046000", "151219.046000", "151219.046000", "151219.062000", "151219.062000", "151219.062000", "151219.062000", "151219.062000", "151240.609000", "151240.609000", "151240.609000", "151240.609000", "151240.609000", "151240.625000", "151240.625000", "151240.625000", "151240.625000", "151240.625000", "151240.625000"],
      "InstanceCreationTime": ["150759.031000", "150759.031000", "150759.046000", "150759.046000", "150759.046000", "150759.062000", "150759.062000", "150759.062000", "150759.062000", "150759.062000", "150759.062000", "150759.062000", "150759.062000", "150759.078000", "150759.078000", "150759.078000", "150759.078000", "150759.078000", "150759.078000", "150759.078000", "150759.078000", "150759.093000", "150759.093000", "150839.015000", "150839.015000", "150839.015000", "150839.015000", "150839.015000", "150839.015000", "150839.031000", "150839.031000", "150839.031000", "150839.031000", "150839.031000", "150839.046000", "150839.046000", "150839.046000", "150839.046000", "150839.046000", "150839.046000", "150839.046000", "150839.046000", "150839.062000", "150859.015000", "150859.015000", "150859.015000", "150859.015000", "150859.015000", "150859.015000", "150859.015000", "150859.031000", "150859.031000", "150859.031000", "150939.015000", "150939.015000", "150939.015000", "150939.015000", "150939.015000", "150939.015000", "150939.031000", "150939.031000", "150939.031000", "150939.031000", "150939.031000", "150939.031000", "150939.031000", "150939.031000", "150939.046000", "150939.046000", "150939.046000", "150939.046000", "150939.046000", "150939.046000", "151019.015000", "151019.015000", "151019.015000", "151019.015000", "151019.015000", "151019.015000", "151019.031000", "151019.031000", "151019.031000", "151019.031000", "151019.046000", "151019.046000", "151019.046000", "151019.046000", "151019.046000", "151019.046000", "151019.046000", "151019.046000", "151019.062000", "151019.062000", "151059.015000", "151059.015000", "151059.015000", "151059.015000", "151059.015000", "151059.015000", "151059.031000", "151059.031000", "151059.031000", "151059.031000", "151059.031000", "151059.031000", "151059.031000", "151059.031000", "151059.046000", "151059.046000", "151059.046000", "151059.046000", "151059.046000", "151059.046000", "151139.015000", "151139.015000", "151139.015000", "151139.015000", "151139.015000", "151139.015000", "151139.031000", "151139.031000", "151139.031000", "151139.031000", "151139.046000", "151139.046000", "151139.046000", "151139.046000", "151139.046000", "151139.046000", "151139.046000", "151139.046000", "151139.062000", "151139.062000", "151219.015000", "151219.015000", "151219.015000", "151219.031000", "151219.031000", "151219.031000", "151219.031000", "151219.031000", "151219.046000", "151219.046000", "151219.046000", "151219.046000", "151219.046000", "151219.046000", "151219.046000", "151219.062000", "151219.062000", "151219.062000", "151219.062000", "151219.062000", "151240.609000", "151240.609000", "151240.609000", "151240.609000", "151240.609000", "151240.625000", "151240.625000", "151240.625000", "151240.625000", "151240.625000", "151240.625000"],
      "InstanceNumber": [1, 2, 3, 4, 5, 6, 7, 8, 9, 10, 11, 12, 13, 14, 15, 16, 17, 18, 19, 20, 21, 22, 23, 24, 25, 26, 27, 28, 29, 30, 31, 32, 33, 34, 35, 36, 37, 38, 39, 40, 41, 42, 43, 44, 45, 46, 47, 48, 49, 50, 51, 52, 53, 54, 55, 56, 57, 58, 59, 60, 61, 62, 63, 64, 65, 66, 67, 68, 69, 70, 71, 72, 73, 74, 75, 76, 77, 78, 79, 80, 81, 82, 83, 84, 85, 86, 87, 88, 89, 90, 91, 92, 93, 94, 95, 96, 97, 98, 99, 100, 101, 102, 103, 104, 105, 106, 107, 108, 109, 110, 111, 112, 113, 114, 115, 116, 117, 118, 119, 120, 121, 122, 123, 124, 125, 126, 127, 128, 129, 130, 131, 132, 133, 134, 135, 136, 137, 138, 139, 140, 141, 142, 143, 144, 145, 146, 147, 148, 149, 150, 151, 152, 153, 154, 155, 156, 157, 158, 159, 160, 161, 162, 163, 164],
      "LargestImagePixelValue": [1621, 1596, 1679, 1575, 1570, 1561, 1562, 1561, 1562, 1562, 1567, 1615, 1580, 1572, 1565, 1578, 1555, 1569, 1575, 1567, 1585, 1570, 1598, 1596, 1576, 1590, 1646, 1575, 1564, 1575, 1567, 1592, 1590, 1564, 1599, 1587, 1585, 1600, 1586, 1585, 1569, 1581, 1579, 1596, 1945, 1572, 1597, 1588, 1595, 1594, 1605, 1585, 1629, 1591, 1607, 1588, 1595, 1608, 1602, 1599, 1606, 1612, 1599, 1610, 1597, 1606, 1594, 1598, 1589, 1605, 1625, 1605, 1724, 1601, 1595, 1608, 1614, 1608, 1609, 1651, 1612, 1598, 1612, 1598, 1598, 1610, 1604, 1637, 1611, 1611, 1618, 1622, 1608, 1606, 1648, 1606, 1678, 1614, 1613, 1616, 1756, 1603, 1608, 1615, 1622, 1621, 1617, 1619, 1620, 2172, 1615, 1609, 1765, 1591, 1624, 1617, 1615, 1611, 1690, 1608, 1611, 1603, 1614, 1643, 1643, 1618, 1625, 1629, 1636, 1636, 1648, 1734, 1784, 1769, 1603, 1591, 1629, 1614, 1619, 1595, 1627, 1617, 1622, 1610, 1600, 1615, 1606, 1608, 1596, 1609, 1621, 1679, 1621, 1621, 1633, 1732, 1618, 1616, 1617, 1626, 1696, 1648, 1632, 1610],
      "WindowCenter": [703.0, 702.0, 702.0, 701.0, 701.0, 700.0, 701.0, 701.0, 700.0, 701.0, 701.0, 702.0, 701.0, 701.0, 702.0, 702.0, 701.0, 701.0, 702.0, 702.0, 701.0, 701.0, 702.0, 702.0, 701.0, 700.0, 701.0, 701.0, 701.0, 701.0, 699.0, 700.0, 700.0, 700.0, 699.0, 700.0, 701.0, 701.0, 701.0, 701.0, 700.0, 701.0, 701.0, 700.0, 701.0, 698.0, 699.0, 699.0, 700.0, 699.0, 699.0, 699.0, 699.0, 699.0, 700.0, 700.0, 700.0, 700.0, 699.0, 699.0, 699.0, 699.0, 699.0, 700.0, 699.0, 699.0, 698.0, 698.0, 699.0, 699.0, 699.0, 698.0, 699.0, 700.0, 700.0, 700.0, 701.0, 701.0, 701.0, 703.0, 703.0, 702.0, 701.0, 701.0, 700.0, 701.0, 700.0, 701.0, 701.0, 702.0, 702.0, 701.0, 701.0, 702.0, 701.0, 701.0, 701.0, 701.0, 702.0, 701.0, 702.0, 701.0, 701.0, 702.0, 702.0, 701.0, 701.0, 701.0, 702.0, 703.0, 700.0, 699.0, 700.0, 700.0, 700.0, 701.0, 701.0, 701.0, 701.0, 702.0, 702.0, 702.0, 702.0, 702.0, 703.0, 702.0, 702.0, 703.0, 703.0, 702.0, 701.0, 701.0, 701.0, 701.0, 699.0, 701.0, 702.0, 701.0, 701.0, 701.0, 701.0, 701.0, 702.0, 702.0, 702.0, 702.0, 702.0, 702.0, 702.0, 702.0, 703.0, 703.0, 702.0, 702.0, 702.0, 702.0, 701.0, 702.0, 703.0, 702.0, 702.0, 701.0, 701.0, 701.0],
      "WindowWidth": [1516.0, 1513.0, 1514.0, 1511.0, 1509.0, 1508.0, 1510.0, 1509.0, 1508.0, 1509.0, 1509.0, 1512.0, 1511.0, 1511.0, 1513.0, 1512.0, 1511.0, 1510.0, 1513.0, 1511.0, 1511.0, 1510.0, 1513.0, 1513.0, 1511.0, 1508.0, 1511.0, 1511.0, 1509.0, 1509.0, 1505.0, 1508.0, 1508.0, 1506.0, 1506.0, 1507.0, 1510.0, 1511.0, 1511.0, 1511.0, 1507.0, 1509.0, 1510.0, 1507.0, 1509.0, 1502.0, 1506.0, 1506.0, 1507.0, 1505.0, 1506.0, 1504.0, 1505.0, 1506.0, 1509.0, 1507.0, 1506.0, 1506.0, 1505.0, 1505.0, 1504.0, 1504.0, 1506.0, 1507.0, 1504.0, 1505.0, 1502.0, 1502.0, 1505.0, 1505.0, 1504.0, 1503.0, 1506.0, 1507.0, 1509.0, 1508.0, 1511.0, 1511.0, 1512.0, 1516.0, 1515.0, 1513.0, 1511.0, 1509.0, 1508.0, 1510.0, 1508.0, 1510.0, 1510.0, 1512.0, 1513.0, 1511.0, 1511.0, 1512.0, 1511.0, 1511.0, 1510.0, 1510.0, 1512.0, 1510.0, 1512.0, 1511.0, 1510.0, 1513.0, 1514.0, 1511.0, 1511.0, 1511.0, 1513.0, 1515.0, 1507.0, 1505.0, 1508.0, 1507.0, 1508.0, 1509.0, 1511.0, 1511.0, 1511.0, 1513.0, 1513.0, 1513.0, 1513.0, 1513.0, 1515.0, 1514.0, 1514.0, 1516.0, 1515.0, 1512.0, 1509.0, 1509.0, 1510.0, 1509.0, 1506.0, 1510.0, 1512.0, 1510.0, 1510.0, 1510.0, 1510.0, 1509.0, 1512.0, 1513.0, 1512.0, 1514.0, 1512.0, 1512.0, 1513.0, 1514.0, 1516.0, 1516.0, 1512.0, 1513.0, 1512.0, 1511.0, 1509.0, 1512.0, 1515.0, 1513.0, 1513.0, 1511.0, 1511.0, 1511.0]
    },
    "slices": {}
  }
}