{
  "AcquisitionMatrixPE": 64,
  "AcquisitionNumber": 1,
  "AcquisitionTime": "15:26:53.092500",
  "BandwidthPerPixelPhaseEncode": 33.967,
  "BaseResolution": 64,
  "CoilCombinationMethod": "Sum of Squares",
  "CoilString": "C:HEA;HEP",
  "ConversionSoftware": "dcm2niix",
  "ConversionSoftwareVersion": "v1.0.20220720",
  "DerivedVendorReportedEchoSpacing": 0.000460005,
  "DeviceSerialNumber": "35193",
  "DwellTime": 3.1e-06,
  "EchoTime": 0.03,
  "EffectiveEchoSpacing": 0.000460005,
  "FlipAngle": 90,
  "HeudiconvVersion": "1.1.6",
  "ImageOrientationPatientDICOM": [1, 0, 0, 0, 1, 0],
  "ImageOrientationText": "Tra",
  "ImageType": [
    "ORIGINAL",
    "PRIMARY",
    "M",
    "ND",
    "MOSAIC"
],
  "ImagingFrequency": 123.254,
  "InPlanePhaseEncodingDirectionDICOM": "COL",
  "InstitutionAddress": "Xinjiekouwai Street No 19,Beijing,Haidian District,CN,100875",
  "InstitutionName": "Beijing Normal Universtiy/4C3F54/",
  "InstitutionalDepartmentName": "Department",
  "MRAcquisitionType": "2D",
  "MagneticFieldStrength": 3,
  "Manufacturer": "Siemens",
  "ManufacturersModelName": "TrioTim",
  "MatrixCoilMode": "SENSE",
  "Modality": "MR",
  "NonlinearGradientCorrection": false,
  "PartialFourier": 1,
  "PatientPosition": "HFS",
  "PercentPhaseFOV": 100,
  "PercentSampling": 100,
  "PhaseEncodingDirection": "j-",
  "PhaseEncodingSteps": 64,
  "PhaseResolution": 1,
  "PixelBandwidth": 2520,
  "ProcedureStepDescription": "BNU_cst_2015^Guo.TaoMei",
  "ProtocolName": "ge_func_3x3x4_164",
  "PulseSequenceDetails": "%SiemensSeq%\\ep2d_bold",
  "ReceiveCoilName": "HeadMatrix",
  "ReconMatrixPE": 64,
  "RepetitionTime": 2,
  "SAR": 0.198458,
  "ScanOptions": "FS",
  "ScanningSequence": "EP",
  "SequenceName": "*epfid2d1_64",
  "SequenceVariant": "SK",
  "SeriesDescription": "ge_func_3x3x4_164",
  "SeriesNumber": 5,
  "ShimSetting": [-4503, -19606, -9710, 1098, 34, -610, 12, -26],
  "SliceThickness": 4,
  "SliceTiming": [0, 1.035, 0.0625, 1.095, 0.1225, 1.1575, 0.1825, 1.2175, 0.245, 1.2775, 0.305, 1.34, 0.365, 1.4, 0.4275, 1.46, 0.4875, 1.5225, 0.5475, 1.5825, 0.61, 1.6425, 0.67, 1.705, 0.73, 1.765, 0.7925, 1.825, 0.8525, 1.8875, 0.9125, 1.9475, 0.975],
  "SoftwareVersions": "syngo MR B17",
  "SpacingBetweenSlices": 4.6,
  "StationName": "MRC35193",
  "TaskName": "CognitiveControl",
  "TotalReadoutTime": 0.0289803,
  "TxRefAmp": 329.411,
  "dcmmeta_affine": [
    [-3.125, 0.0, 0.0, 100.0],
    [0.0, 3.125, 0.0, -88.77861785888672],
    [0.0, 0.0, 4.599999904632568, -41.21445846557617],
    [0.0, 0.0, 0.0, 1.0]
],
  "dcmmeta_reorient_transform": [
    [0.0, -1.0, 0.0, 63.0],
    [1.0, 0.0, 0.0, 0.0],
    [0.0, 0.0, 1.0, 0.0],
    [0.0, 0.0, 0.0, 1.0]
],
  "dcmmeta_shape": [64, 64, 33, 164],
  "dcmmeta_slice_dim": 2,
  "dcmmeta_version": 0.6,
  "global": {
    "const": {
      "AcquisitionMatrix": [64, 0, 0, 64],
      "AngioFlag": "N",
      "BitsAllocated": 16,
      "BitsStored": 12,
      "Columns": 384,
      "ContrastBolusIngredientConcentration": 0.0,
      "ContrastBolusTotalDose": 0.0,
      "ContrastBolusVolume": 0.0,
      "EchoNumbers": 1,
      "EchoTime": 30.0,
      "EchoTrainLength": 1,
      "FlipAngle": 90.0,
      "HighBit": 11,
      "ImageOrientationPatient": [1.0, 0.0, 0.0, 0.0, 1.0, 0.0],
      "ImagePositionPatient": [-600.0, -608.09638595581, -41.214458465576],
      "ImageType": [
        "ORIGINAL",
        "PRIMARY",
        "M",
        "ND",
        "MOSAIC"
],
      "ImagedNucleus": "1H",
      "ImagingFrequency": 123.253653,
      "InPlanePhaseEncodingDirection": "COL",
      "MRAcquisitionType": "2D",
      "MagneticFieldStrength": 3.0,
      "Manufacturer": "SIEMENS",
      "ManufacturerModelName": "TrioTim",
      "Modality": "MR",
      "NumberOfAverages": 1.0,
      "NumberOfPhaseEncodingSteps": 64,
      "PercentPhaseFieldOfView": 100.0,
      "PercentSampling": 100.0,
      "PerformedProcedureStepStartTime": "150314.375000",
      "PhotometricInterpretation": "MONOCHROME2",
      "PixelBandwidth": 2520.0,
      "PixelRepresentation": 0,
      "PixelSpacing": [3.125, 3.125],
      "ProtocolName": "ge_func_3x3x4_164",
      "RepetitionTime": 2000.0,
      "Rows": 384,
      "SAR": 0.19845756087825,
      "SamplesPerPixel": 1,
      "ScanOptions": "FS",
      "ScanningSequence": "EP",
      "SequenceName": "*epfid2d1_64",
      "SequenceVariant": "SK",
      "SeriesDescription": "ge_func_3x3x4_164",
      "SeriesNumber": 5,
      "SeriesTime": "152744.843000",
      "SliceLocation": -41.214458465576,
      "SliceThickness": 4.0,
      "SmallestImagePixelValue": 0,
      "SoftwareVersions": "syngo MR B17",
      "SpacingBetweenSlices": 4.6000000238419,
      "SpecificCharacterSet": "ISO_IR 100",
      "StudyID": "1",
      "StudyTime": "150314.328000",
      "TransmitCoilName": "Body",
      "VariableFlipAngleFlag": "N",
      "WindowCenterWidthExplanation": "Algo1",
      "dBdt": 0.0},
    "slices": {}
  },
  "time": {
    "samples": {
      "AcquisitionNumber": [1, 2, 3, 4, 5, 6, 7, 8, 9, 10, 11, 12, 13, 14, 15, 16, 17, 18, 19, 20, 21, 22, 23, 24, 25, 26, 27, 28, 29, 30, 31, 32, 33, 34, 35, 36, 37, 38, 39, 40, 41, 42, 43, 44, 45, 46, 47, 48, 49, 50, 51, 52, 53, 54, 55, 56, 57, 58, 59, 60, 61, 62, 63, 64, 65, 66, 67, 68, 69, 70, 71, 72, 73, 74, 75, 76, 77, 78, 79, 80, 81, 82, 83, 84, 85, 86, 87, 88, 89, 90, 91, 92, 93, 94, 95, 96, 97, 98, 99, 100, 101, 102, 103, 104, 105, 106, 107, 108, 109, 110, 111, 112, 113, 114, 115, 116, 117, 118, 119, 120, 121, 122, 123, 124, 125, 126, 127, 128, 129, 130, 131, 132, 133, 134, 135, 136, 137, 138, 139, 140, 141, 142, 143, 144, 145, 146, 147, 148, 149, 150, 151, 152, 153, 154, 155, 156, 157, 158, 159, 160, 161, 162, 163, 164],
      "AcquisitionTime": ["152653.092500", "152655.102500", "152657.110000", "152659.117500", "152701.125000", "152703.132500", "152705.142500", "152707.150000", "152709.157500", "152711.165000", "152713.172500", "152715.182500", "152717.190000", "152719.197500", "152721.205000", "152723.215000", "152725.222500", "152727.230000", "152729.237500", "152731.245000", "152733.255000", "152735.262500", "152737.270000", "152739.277500", "152741.285000", "152743.295000", "152745.302500", "152747.310000", "152749.317500", "152751.325000", "152753.335000", "152755.342500", "152757.350000", "152759.357500", "152801.367500", "152803.375000", "152805.382500", "152807.390000", "152809.397500", "152811.407500", "152813.415000", "152815.422500", "152817.430000", "152819.437500", "152821.447500", "152823.455000", "152825.462500", "152827.470000", "152829.480000", "152831.487500", "152833.495000", "152835.502500", "152837.510000", "152839.520000", "152841.527500", "152843.535000", "152845.542500", "152847.550000", "152849.560000", "152851.567500", "152853.575000", "152855.582500", "152857.592500", "152859.600000", "152901.607500", "152903.615000", "152905.622500", "152907.632500", "152909.640000", "152911.647500", "152913.655000", "152915.662500", "152917.672500", "152919.680000", "152921.687500", "152923.695000", "152925.705000", "152927.712500", "152929.720000", "152931.727500", "152933.735000", "152935.745000", "152937.752500", "152939.760000", "152941.767500", "152943.775000", "152945.785000", "152947.792500", "152949.800000", "152951.807500", "152953.815000", "152955.825000", "152957.832500", "152959.840000", "153001.847500", "153003.857500", "153005.865000", "153007.872500", "153009.880000", "153011.887500", "153013.897500", "153015.905000", "153017.912500", "153019.920000", "153021.927500", "153023.937500", "153025.945000", "153027.952500", "153029.960000", "153031.970000", "153033.977500", "153035.985000", "153037.992500", "153040.000000", "153042.010000", "153044.017500", "153046.025000", "153048.032500", "153050.040000", "153052.050000", "153054.057500", "153056.065000", "153058.072500", "153100.082500", "153102.090000", "153104.097500", "153106.105000", "153108.112500", "153110.122500", "153112.130000", "153114.137500", "153116.145000", "153118.152500", "153120.162500", "153122.170000", "153124.177500", "153126.185000", "153128.192500", "153130.202500", "153132.210000", "153134.217500", "153136.225000", "153138.235000", "153140.242500", "153142.250000", "153144.257500", "153146.265000", "153148.275000", "153150.282500", "153152.290000", "153154.297500", "153156.305000", "153158.315000", "153200.322500", "153202.330000", "153204.337500", "153206.347500", "153208.355000", "153210.362500", "153212.370000", "153214.377500", "153216.387500", "153218.395000", "153220.402500"],
      "ContentTime": ["152744.843000", "152744.843000", "152744.843000", "152744.859000", "152744.859000", "152744.875000", "152744.875000", "152744.875000", "152744.875000", "152744.875000", "152744.875000", "152744.875000", "152744.875000", "152744.890000", "152744.890000", "152744.890000", "152744.890000", "152744.906000", "152744.906000", "152744.906000", "152744.906000", "152744.906000", "152744.921000", "152744.921000", "152744.921000", "152824.843000", "152824.843000", "152824.843000", "152824.843000", "152824.843000", "152824.843000", "152824.843000", "152824.859000", "152824.859000", "152824.859000", "152824.859000", "152824.859000", "152824.859000", "152824.859000", "152824.875000", "152824.875000", "152824.875000", "152824.875000", "152824.875000", "152824.875000", "152844.843000", "152844.843000", "152844.843000", "152844.843000", "152844.843000", "152844.843000", "152844.843000", "152844.859000", "152844.859000", "152844.859000", "152924.843000", "152924.843000", "152924.843000", "152924.843000", "152924.843000", "152924.843000", "152924.859000", "152924.859000", "152924.859000", "152924.859000", "152924.859000", "152924.859000", "152924.875000", "152924.875000", "152924.875000", "152924.875000", "152924.890000", "152924.890000", "152924.890000", "152924.890000", "153004.843000", "153004.843000", "153004.843000", "153004.843000", "153004.843000", "153004.843000", "153004.843000", "153004.859000", "153004.859000", "153004.859000", "153004.859000", "153004.875000", "153004.875000", "153004.875000", "153004.875000", "153004.875000", "153004.875000", "153004.875000", "153004.875000", "153004.890000", "153044.843000", "153044.843000", "153044.843000", "153044.843000", "153044.843000", "153044.843000", "153044.859000", "153044.859000", "153044.859000", "153044.859000", "153044.859000", "153044.875000", "153044.875000", "153044.875000", "153044.875000", "153044.875000", "153044.875000", "153044.875000", "153044.875000", "153044.890000", "153124.843000", "153124.843000", "153124.843000", "153124.843000", "153124.843000", "153124.843000", "153124.859000", "153124.859000", "153124.859000", "153124.859000", "153124.859000", "153124.859000", "153124.875000", "153124.875000", "153124.875000", "153124.875000", "153124.875000", "153124.875000", "153124.890000", "153124.890000", "153204.843000", "153204.843000", "153204.843000", "153204.843000", "153204.843000", "153204.843000", "153204.843000", "153204.859000", "153204.859000", "153204.859000", "153204.859000", "153204.859000", "153204.859000", "153204.859000", "153204.875000", "153204.875000", "153204.875000", "153204.875000", "153204.890000", "153204.890000", "153221.468000", "153221.468000", "153221.468000", "153221.468000", "153221.484000", "153221.484000", "153221.484000", "153221.484000", "153221.484000"],
      "InstanceCreationTime": ["152744.843000", "152744.843000", "152744.843000", "152744.859000", "152744.859000", "152744.875000", "152744.875000", "152744.875000", "152744.875000", "152744.875000", "152744.875000", "152744.875000", "152744.875000", "152744.890000", "152744.890000", "152744.890000", "152744.890000", "152744.906000", "152744.906000", "152744.906000", "152744.906000", "152744.906000", "152744.921000", "152744.921000", "152744.921000", "152824.843000", "152824.843000", "152824.843000", "152824.843000", "152824.843000", "152824.843000", "152824.843000", "152824.859000", "152824.859000", "152824.859000", "152824.859000", "152824.859000", "152824.859000", "152824.859000", "152824.875000", "152824.875000", "152824.875000", "152824.875000", "152824.875000", "152824.875000", "152844.843000", "152844.843000", "152844.843000", "152844.843000", "152844.843000", "152844.843000", "152844.843000", "152844.859000", "152844.859000", "152844.859000", "152924.843000", "152924.843000", "152924.843000", "152924.843000", "152924.843000", "152924.843000", "152924.859000", "152924.859000", "152924.859000", "152924.859000", "152924.859000", "152924.859000", "152924.875000", "152924.875000", "152924.875000", "152924.875000", "152924.890000", "152924.890000", "152924.890000", "152924.890000", "153004.843000", "153004.843000", "153004.843000", "153004.843000", "153004.843000", "153004.843000", "153004.843000", "153004.859000", "153004.859000", "153004.859000", "153004.859000", "153004.875000", "153004.875000", "153004.875000", "153004.875000", "153004.875000", "153004.875000", "153004.875000", "153004.875000", "153004.890000", "153044.843000", "153044.843000", "153044.843000", "153044.843000", "153044.843000", "153044.843000", "153044.859000", "153044.859000", "153044.859000", "153044.859000", "153044.859000", "153044.875000", "153044.875000", "153044.875000", "153044.875000", "153044.875000", "153044.875000", "153044.875000", "153044.875000", "153044.890000", "153124.843000", "153124.843000", "153124.843000", "153124.843000", "153124.843000", "153124.843000", "153124.859000", "153124.859000", "153124.859000", "153124.859000", "153124.859000", "153124.859000", "153124.875000", "153124.875000", "153124.875000", "153124.875000", "153124.875000", "153124.875000", "153124.890000", "153124.890000", "153204.843000", "153204.843000", "153204.843000", "153204.843000", "153204.843000", "153204.843000", "153204.843000", "153204.859000", "153204.859000", "153204.859000", "153204.859000", "153204.859000", "153204.859000", "153204.859000", "153204.875000", "153204.875000", "153204.875000", "153204.875000", "153204.890000", "153204.890000", "153221.468000", "153221.468000", "153221.468000", "153221.468000", "153221.484000", "153221.484000", "153221.484000", "153221.484000", "153221.484000"],
      "InstanceNumber": [1, 2, 3, 4, 5, 6, 7, 8, 9, 10, 11, 12, 13, 14, 15, 16, 17, 18, 19, 20, 21, 22, 23, 24, 25, 26, 27, 28, 29, 30, 31, 32, 33, 34, 35, 36, 37, 38, 39, 40, 41, 42, 43, 44, 45, 46, 47, 48, 49, 50, 51, 52, 53, 54, 55, 56, 57, 58, 59, 60, 61, 62, 63, 64, 65, 66, 67, 68, 69, 70, 71, 72, 73, 74, 75, 76, 77, 78, 79, 80, 81, 82, 83, 84, 85, 86, 87, 88, 89, 90, 91, 92, 93, 94, 95, 96, 97, 98, 99, 100, 101, 102, 103, 104, 105, 106, 107, 108, 109, 110, 111, 112, 113, 114, 115, 116, 117, 118, 119, 120, 121, 122, 123, 124, 125, 126, 127, 128, 129, 130, 131, 132, 133, 134, 135, 136, 137, 138, 139, 140, 141, 142, 143, 144, 145, 146, 147, 148, 149, 150, 151, 152, 153, 154, 155, 156, 157, 158, 159, 160, 161, 162, 163, 164],
      "LargestImagePixelValue": [1737, 1682, 1643, 1813, 1641, 1656, 1654, 1652, 1649, 1644, 1650, 1640, 1639, 1654, 1656, 1641, 1631, 1648, 1650, 1640, 1641, 1654, 1643, 1649, 1638, 1637, 1719, 1660, 1657, 1644, 1658, 1992, 1675, 1655, 1636, 1642, 1642, 1792, 1627, 1643, 1639, 1647, 1646, 1628, 1653, 1638, 1643, 1631, 1621, 1674, 1651, 1648, 1632, 1613, 1650, 1655, 1651, 1650, 1635, 1640, 1642, 1633, 1647, 1626, 1626, 1650, 1650, 1644, 1649, 1639, 1646, 1619, 1787, 1941, 1646, 1639, 1645, 1875, 1663, 1648, 1622, 1680, 1652, 1650, 1641, 1628, 1639, 1643, 1625, 1635, 1888, 1645, 1648, 1626, 1652, 1639, 1966, 1640, 1625, 1650, 1642, 1645, 1904, 1630, 1642, 1638, 1622, 1614, 1667, 1689, 1628, 1615, 1925, 1618, 1612, 1601, 1705, 1602, 1615, 1729, 1606, 1626, 1605, 1713, 1623, 1606, 1671, 1717, 1622, 1611, 1631, 1628, 1637, 1627, 1621, 1633, 1627, 1642, 1629, 1990, 1631, 1611, 1622, 1749, 1625, 1621, 1615, 1602, 1830, 1626, 1904, 1629, 1646, 1603, 1612, 1603, 1602, 1627, 1612, 1962, 1616, 1604, 1600, 1598],
      "WindowCenter": [708.0, 705.0, 705.0, 705.0, 703.0, 702.0, 702.0, 704.0, 704.0, 704.0, 704.0, 704.0, 705.0, 705.0, 705.0, 704.0, 705.0, 705.0, 704.0, 703.0, 704.0, 704.0, 704.0, 705.0, 706.0, 704.0, 704.0, 704.0, 705.0, 705.0, 705.0, 706.0, 704.0, 704.0, 705.0, 706.0, 706.0, 706.0, 704.0, 703.0, 704.0, 705.0, 704.0, 704.0, 704.0, 705.0, 705.0, 705.0, 705.0, 705.0, 704.0, 705.0, 706.0, 705.0, 705.0, 705.0, 707.0, 706.0, 704.0, 704.0, 704.0, 705.0, 705.0, 705.0, 706.0, 706.0, 706.0, 706.0, 707.0, 708.0, 707.0, 705.0, 704.0, 704.0, 704.0, 706.0, 705.0, 706.0, 704.0, 705.0, 705.0, 706.0, 706.0, 705.0, 706.0, 705.0, 705.0, 705.0, 706.0, 707.0, 707.0, 704.0, 704.0, 706.0, 707.0, 706.0, 706.0, 704.0, 703.0, 705.0, 705.0, 706.0, 707.0, 706.0, 706.0, 707.0, 708.0, 708.0, 709.0, 708.0, 707.0, 706.0, 707.0, 705.0, 705.0, 705.0, 706.0, 705.0, 705.0, 705.0, 705.0, 706.0, 706.0, 706.0, 705.0, 705.0, 706.0, 706.0, 705.0, 705.0, 705.0, 704.0, 706.0, 707.0, 707.0, 707.0, 708.0, 708.0, 707.0, 708.0, 706.0, 706.0, 706.0, 706.0, 705.0, 705.0, 707.0, 708.0, 709.0, 706.0, 706.0, 704.0, 704.0, 703.0, 704.0, 705.0, 706.0, 708.0, 707.0, 707.0, 705.0, 706.0, 707.0, 706.0],
      "WindowWidth": [1530.0, 1522.0, 1520.0, 1519.0, 1515.0, 1513.0, 1514.0, 1516.0, 1519.0, 1519.0, 1516.0, 1517.0, 1521.0, 1521.0, 1519.0, 1518.0, 1520.0, 1519.0, 1518.0, 1516.0, 1517.0, 1517.0, 1519.0, 1522.0, 1522.0, 1518.0, 1518.0, 1519.0, 1521.0, 1520.0, 1519.0, 1522.0, 1518.0, 1517.0, 1521.0, 1523.0, 1523.0, 1523.0, 1516.0, 1515.0, 1518.0, 1519.0, 1518.0, 1517.0, 1518.0, 1520.0, 1520.0, 1521.0, 1521.0, 1520.0, 1519.0, 1521.0, 1522.0, 1521.0, 1520.0, 1521.0, 1525.0, 1522.0, 1518.0, 1517.0, 1518.0, 1520.0, 1521.0, 1520.0, 1522.0, 1525.0, 1524.0, 1522.0, 1525.0, 1529.0, 1527.0, 1521.0, 1519.0, 1519.0, 1519.0, 1522.0, 1521.0, 1523.0, 1518.0, 1520.0, 1521.0, 1523.0, 1522.0, 1522.0, 1522.0, 1521.0, 1522.0, 1522.0, 1523.0, 1525.0, 1527.0, 1519.0, 1517.0, 1523.0, 1527.0, 1523.0, 1523.0, 1517.0, 1516.0, 1520.0, 1522.0, 1523.0, 1526.0, 1522.0, 1524.0, 1526.0, 1528.0, 1530.0, 1533.0, 1530.0, 1525.0, 1522.0, 1525.0, 1522.0, 1522.0, 1520.0, 1522.0, 1521.0, 1521.0, 1522.0, 1520.0, 1522.0, 1523.0, 1524.0, 1522.0, 1522.0, 1523.0, 1524.0, 1520.0, 1520.0, 1520.0, 1519.0, 1524.0, 1526.0, 1526.0, 1527.0, 1528.0, 1529.0, 1526.0, 1528.0, 1522.0, 1525.0, 1524.0, 1524.0, 1521.0, 1520.0, 1526.0, 1529.0, 1531.0, 1524.0, 1524.0, 1519.0, 1517.0, 1515.0, 1517.0, 1520.0, 1524.0, 1528.0, 1526.0, 1527.0, 1520.0, 1523.0, 1525.0, 1522.0]
    },
    "slices": {}
  }
}