{
  "AcquisitionMatrixPE": 64,
  "AcquisitionNumber": 1,
  "AcquisitionTime": "11:55:48.437500",
  "BandwidthPerPixelPhaseEncode": 33.967,
  "BaseResolution": 64,
  "CoilCombinationMethod": "Sum of Squares",
  "CoilString": "C:HEA;HEP",
  "ConversionSoftware": "dcm2niix",
  "ConversionSoftwareVersion": "v1.0.20220720",
  "DerivedVendorReportedEchoSpacing": 0.000460005,
  "DeviceSerialNumber": "35193",
  "DwellTime": 3.1e-06,
  "EchoTime": 0.03,
  "EffectiveEchoSpacing": 0.000460005,
  "FlipAngle": 90,
  "HeudiconvVersion": "1.1.6",
  "ImageOrientationPatientDICOM": [0.999152, 0.0244322, -0.0331453, -0.0244188, 0.999701, 0.000810053],
  "ImageOrientationText": "Tra>Sag(-1.9)",
  "ImageType": [
    "ORIGINAL",
    "PRIMARY",
    "M",
    "ND",
    "MOSAIC"
],
  "ImagingFrequency": 123.254,
  "InPlanePhaseEncodingDirectionDICOM": "COL",
  "InstitutionAddress": "Xinjiekouwai Street No 19,Beijing,Haidian District,CN,100875",
  "InstitutionName": "BNU MRI Center",
  "InstitutionalDepartmentName": "Department",
  "MRAcquisitionType": "2D",
  "MagneticFieldStrength": 3,
  "Manufacturer": "Siemens",
  "ManufacturersModelName": "TrioTim",
  "MatrixCoilMode": "SENSE",
  "Modality": "MR",
  "NonlinearGradientCorrection": false,
  "PartialFourier": 1,
  "PatientPosition": "HFS",
  "PercentPhaseFOV": 100,
  "PercentSampling": 100,
  "PhaseEncodingDirection": "j-",
  "PhaseEncodingSteps": 64,
  "PhaseResolution": 1,
  "PixelBandwidth": 2520,
  "ProcedureStepDescription": "BNU_cst_2015^Guo.TaoMei",
  "ProtocolName": "ge_func_3x3x4_164",
  "PulseSequenceDetails": "%SiemensSeq%\\ep2d_bold",
  "ReceiveCoilName": "HeadMatrix",
  "ReconMatrixPE": 64,
  "RepetitionTime": 2,
  "SAR": 0.140272,
  "ScanOptions": "FS",
  "ScanningSequence": "EP",
  "SequenceName": "*epfid2d1_64",
  "SequenceVariant": "SK",
  "SeriesDescription": "ge_func_3x3x4_164",
  "SeriesNumber": 5,
  "ShimSetting": [-4497, -19333, -9862, 971, -140, -268, 55, -49],
  "SliceThickness": 4,
  "SliceTiming": [0, 1.035, 0.0625, 1.095, 0.1225, 1.1575, 0.1825, 1.2175, 0.245, 1.2775, 0.305, 1.34, 0.365, 1.4, 0.4275, 1.46, 0.4875, 1.5225, 0.5475, 1.5825, 0.61, 1.6425, 0.67, 1.705, 0.73, 1.765, 0.7925, 1.825, 0.8525, 1.8875, 0.9125, 1.9475, 0.975],
  "SoftwareVersions": "syngo MR B17",
  "SpacingBetweenSlices": 4.6,
  "StationName": "MRC35193",
  "TaskName": "LanguageControl",
  "TotalReadoutTime": 0.0289803,
  "TxRefAmp": 349.843,
  "dcmmeta_affine": [
    [-3.122349500656128, -0.07630867511034012, -0.15251383185386658, 110.11856842041016],
    [-0.07635065168142319, 3.1240670680999756, -6.833219767798937e-09, -82.9329833984375],
    [-0.10357900708913803, -0.002531415084376931, 4.597471237182617, -81.63641357421875],
    [0.0, 0.0, 0.0, 1.0]
],
  "dcmmeta_reorient_transform": [
    [0.0, -1.0, 0.0, 63.0],
    [1.0, 0.0, 0.0, 0.0],
    [0.0, 0.0, 1.0, 0.0],
    [0.0, 0.0, 0.0, 1.0]
],
  "dcmmeta_shape": [64, 64, 33, 164],
  "dcmmeta_slice_dim": 2,
  "dcmmeta_version": 0.6,
  "global": {
    "const": {
      "AcquisitionMatrix": [64, 0, 0, 64],
      "AngioFlag": "N",
      "BitsAllocated": 16,
      "BitsStored": 12,
      "Columns": 384,
      "EchoNumbers": 1,
      "EchoTime": 30.0,
      "EchoTrainLength": 1,
      "FlipAngle": 90.0,
      "HighBit": 11,
      "ImageOrientationPatient": [0.99915186905419, 0.02443220925661, -0.0331452819624, -0.0244187768661, 0.99970148902102, 0.00081005278976],
      "ImagePositionPatient": [-592.67766678289, -625.95009811697, -65.628281441725],
      "ImageType": [
        "ORIGINAL",
        "PRIMARY",
        "M",
        "ND",
        "MOSAIC"
],
      "ImagedNucleus": "1H",
      "ImagingFrequency": 123.253742,
      "InPlanePhaseEncodingDirection": "COL",
      "MRAcquisitionType": "2D",
      "MagneticFieldStrength": 3.0,
      "Manufacturer": "SIEMENS",
      "ManufacturerModelName": "TrioTim",
      "Modality": "MR",
      "NumberOfAverages": 1.0,
      "NumberOfPhaseEncodingSteps": 64,
      "PercentPhaseFieldOfView": 100.0,
      "PercentSampling": 100.0,
      "PerformedProcedureStepStartTime": "113315.062000",
      "PhotometricInterpretation": "MONOCHROME2",
      "PixelBandwidth": 2520.0,
      "PixelRepresentation": 0,
      "PixelSpacing": [3.125, 3.125],
      "ProtocolName": "ge_func_3x3x4_164",
      "RepetitionTime": 2000.0,
      "Rows": 384,
      "SAR": 0.14027226352512,
      "SamplesPerPixel": 1,
      "ScanOptions": "FS",
      "ScanningSequence": "EP",
      "SequenceName": "*epfid2d1_64",
      "SequenceVariant": "SK",
      "SeriesDescription": "ge_func_3x3x4_164",
      "SeriesNumber": 5,
      "SeriesTime": "115635.609000",
      "SliceLocation": -85.242535184423,
      "SliceThickness": 4.0,
      "SmallestImagePixelValue": 0,
      "SoftwareVersions": "syngo MR B17",
      "SpacingBetweenSlices": 4.6000001244522,
      "SpecificCharacterSet": "ISO_IR 100",
      "StudyID": "1",
      "StudyTime": "113314.984000",
      "TransmitCoilName": "Body",
      "VariableFlipAngleFlag": "N",
      "WindowCenterWidthExplanation": "Algo1",
      "dBdt": 0.0},
    "slices": {}
  },
  "time": {
    "samples": {
      "AcquisitionNumber": [1, 2, 3, 4, 5, 6, 7, 8, 9, 10, 11, 12, 13, 14, 15, 16, 17, 18, 19, 20, 21, 22, 23, 24, 25, 26, 27, 28, 29, 30, 31, 32, 33, 34, 35, 36, 37, 38, 39, 40, 41, 42, 43, 44, 45, 46, 47, 48, 49, 50, 51, 52, 53, 54, 55, 56, 57, 58, 59, 60, 61, 62, 63, 64, 65, 66, 67, 68, 69, 70, 71, 72, 73, 74, 75, 76, 77, 78, 79, 80, 81, 82, 83, 84, 85, 86, 87, 88, 89, 90, 91, 92, 93, 94, 95, 96, 97, 98, 99, 100, 101, 102, 103, 104, 105, 106, 107, 108, 109, 110, 111, 112, 113, 114, 115, 116, 117, 118, 119, 120, 121, 122, 123, 124, 125, 126, 127, 128, 129, 130, 131, 132, 133, 134, 135, 136, 137, 138, 139, 140, 141, 142, 143, 144, 145, 146, 147, 148, 149, 150, 151, 152, 153, 154, 155, 156, 157, 158, 159, 160, 161, 162, 163, 164],
      "AcquisitionTime": ["115548.437500", "115550.445000", "115552.455000", "115554.462500", "115556.470000", "115558.477500", "115600.487500", "115602.495000", "115604.502500", "115606.510000", "115608.517500", "115610.527500", "115612.535000", "115614.542500", "115616.550000", "115618.557500", "115620.567500", "115622.575000", "115624.582500", "115626.590000", "115628.600000", "115630.607500", "115632.615000", "115634.622500", "115636.630000", "115638.640000", "115640.647500", "115642.655000", "115644.662500", "115646.670000", "115648.680000", "115650.687500", "115652.695000", "115654.702500", "115656.710000", "115658.720000", "115700.727500", "115702.735000", "115704.742500", "115706.752500", "115708.760000", "115710.767500", "115712.775000", "115714.782500", "115716.792500", "115718.800000", "115720.807500", "115722.815000", "115724.822500", "115726.832500", "115728.840000", "115730.847500", "115732.855000", "115734.865000", "115736.872500", "115738.880000", "115740.887500", "115742.895000", "115744.905000", "115746.912500", "115748.920000", "115750.927500", "115752.935000", "115754.945000", "115756.952500", "115758.960000", "115800.967500", "115802.977500", "115804.985000", "115806.992500", "115809.000000", "115811.007500", "115813.017500", "115815.025000", "115817.032500", "115819.040000", "115821.047500", "115823.057500", "115825.065000", "115827.072500", "115829.080000", "115831.090000", "115833.097500", "115835.105000", "115837.112500", "115839.120000", "115841.130000", "115843.137500", "115845.145000", "115847.152500", "115849.160000", "115851.170000", "115853.177500", "115855.185000", "115857.192500", "115859.200000", "115901.210000", "115903.217500", "115905.225000", "115907.232500", "115909.242500", "115911.250000", "115913.257500", "115915.265000", "115917.272500", "115919.282500", "115921.290000", "115923.297500", "115925.305000", "115927.312500", "115929.322500", "115931.330000", "115933.337500", "115935.345000", "115937.355000", "115939.362500", "115941.370000", "115943.377500", "115945.385000", "115947.395000", "115949.402500", "115951.410000", "115953.417500", "115955.425000", "115957.435000", "115959.442500", "120001.450000", "120003.457500", "120005.467500", "120007.475000", "120009.482500", "120011.490000", "120013.497500", "120015.507500", "120017.515000", "120019.522500", "120021.530000", "120023.537500", "120025.547500", "120027.555000", "120029.562500", "120031.570000", "120033.577500", "120035.587500", "120037.595000", "120039.602500", "120041.610000", "120043.620000", "120045.627500", "120047.635000", "120049.642500", "120051.650000", "120053.660000", "120055.667500", "120057.675000", "120059.682500", "120101.690000", "120103.700000", "120105.707500", "120107.715000", "120109.722500", "120111.732500", "120113.740000", "120115.747500"],
      "ContentTime": ["115635.609000", "115635.625000", "115635.625000", "115635.625000", "115635.625000", "115635.625000", "115635.625000", "115635.640000", "115635.640000", "115635.640000", "115635.640000", "115635.640000", "115635.656000", "115635.656000", "115635.656000", "115635.656000", "115635.656000", "115635.656000", "115635.656000", "115635.671000", "115635.671000", "115635.671000", "115635.671000", "115715.609000", "115715.609000", "115715.609000", "115715.609000", "115715.625000", "115715.625000", "115715.625000", "115715.625000", "115715.625000", "115715.625000", "115715.640000", "115715.640000", "115715.640000", "115715.640000", "115715.640000", "115715.640000", "115715.640000", "115715.656000", "115715.656000", "115715.656000", "115755.609000", "115755.609000", "115755.609000", "115755.609000", "115755.625000", "115755.625000", "115755.625000", "115755.625000", "115755.625000", "115755.640000", "115755.640000", "115755.640000", "115755.640000", "115755.640000", "115755.640000", "115755.640000", "115755.640000", "115755.656000", "115755.656000", "115755.656000", "115835.609000", "115835.609000", "115835.609000", "115835.625000", "115835.625000", "115835.625000", "115835.625000", "115835.625000", "115835.640000", "115835.640000", "115835.640000", "115835.640000", "115835.640000", "115835.656000", "115835.656000", "115835.656000", "115835.671000", "115835.671000", "115835.671000", "115835.671000", "115915.609000", "115915.609000", "115915.625000", "115915.625000", "115915.625000", "115915.625000", "115915.640000", "115915.640000", "115915.640000", "115915.640000", "115915.640000", "115915.640000", "115915.640000", "115915.640000", "115915.656000", "115915.656000", "115915.656000", "115915.656000", "115915.656000", "115915.656000", "115955.609000", "115955.609000", "115955.609000", "115955.625000", "115955.625000", "115955.625000", "115955.625000", "115955.625000", "115955.625000", "115955.625000", "115955.625000", "115955.640000", "115955.640000", "115955.640000", "115955.640000", "115955.640000", "115955.640000", "115955.640000", "115955.640000", "115955.656000", "120035.609000", "120035.609000", "120035.609000", "120035.609000", "120035.609000", "120035.625000", "120035.625000", "120035.625000", "120035.625000", "120035.625000", "120035.625000", "120035.625000", "120035.625000", "120035.640000", "120035.640000", "120035.640000", "120035.640000", "120035.640000", "120035.640000", "120035.656000", "120115.609000", "120115.609000", "120115.609000", "120115.609000", "120115.625000", "120115.625000", "120115.625000", "120115.625000", "120115.625000", "120115.625000", "120115.625000", "120115.640000", "120115.640000", "120115.640000", "120115.640000", "120115.640000", "120115.640000", "120115.640000", "120115.640000", "120115.656000", "120117.343000"],
      "InstanceCreationTime": ["115635.609000", "115635.625000", "115635.625000", "115635.625000", "115635.625000", "115635.625000", "115635.625000", "115635.640000", "115635.640000", "115635.640000", "115635.640000", "115635.640000", "115635.656000", "115635.656000", "115635.656000", "115635.656000", "115635.656000", "115635.656000", "115635.656000", "115635.671000", "115635.671000", "115635.671000", "115635.671000", "115715.609000", "115715.609000", "115715.609000", "115715.609000", "115715.625000", "115715.625000", "115715.625000", "115715.625000", "115715.625000", "115715.625000", "115715.640000", "115715.640000", "115715.640000", "115715.640000", "115715.640000", "115715.640000", "115715.640000", "115715.656000", "115715.656000", "115715.656000", "115755.609000", "115755.609000", "115755.609000", "115755.609000", "115755.625000", "115755.625000", "115755.625000", "115755.625000", "115755.625000", "115755.640000", "115755.640000", "115755.640000", "115755.640000", "115755.640000", "115755.640000", "115755.640000", "115755.640000", "115755.656000", "115755.656000", "115755.656000", "115835.609000", "115835.609000", "115835.609000", "115835.625000", "115835.625000", "115835.625000", "115835.625000", "115835.625000", "115835.640000", "115835.640000", "115835.640000", "115835.640000", "115835.640000", "115835.656000", "115835.656000", "115835.656000", "115835.671000", "115835.671000", "115835.671000", "115835.671000", "115915.609000", "115915.609000", "115915.625000", "115915.625000", "115915.625000", "115915.625000", "115915.640000", "115915.640000", "115915.640000", "115915.640000", "115915.640000", "115915.640000", "115915.640000", "115915.640000", "115915.656000", "115915.656000", "115915.656000", "115915.656000", "115915.656000", "115915.656000", "115955.609000", "115955.609000", "115955.609000", "115955.625000", "115955.625000", "115955.625000", "115955.625000", "115955.625000", "115955.625000", "115955.625000", "115955.625000", "115955.640000", "115955.640000", "115955.640000", "115955.640000", "115955.640000", "115955.640000", "115955.640000", "115955.640000", "115955.656000", "120035.609000", "120035.609000", "120035.609000", "120035.609000", "120035.609000", "120035.625000", "120035.625000", "120035.625000", "120035.625000", "120035.625000", "120035.625000", "120035.625000", "120035.625000", "120035.640000", "120035.640000", "120035.640000", "120035.640000", "120035.640000", "120035.640000", "120035.656000", "120115.609000", "120115.609000", "120115.609000", "120115.609000", "120115.625000", "120115.625000", "120115.625000", "120115.625000", "120115.625000", "120115.625000", "120115.625000", "120115.640000", "120115.640000", "120115.640000", "120115.640000", "120115.640000", "120115.640000", "120115.640000", "120115.640000", "120115.656000", "120117.343000"],
      "InstanceNumber": [1, 2, 3, 4, 5, 6, 7, 8, 9, 10, 11, 12, 13, 14, 15, 16, 17, 18, 19, 20, 21, 22, 23, 24, 25, 26, 27, 28, 29, 30, 31, 32, 33, 34, 35, 36, 37, 38, 39, 40, 41, 42, 43, 44, 45, 46, 47, 48, 49, 50, 51, 52, 53, 54, 55, 56, 57, 58, 59, 60, 61, 62, 63, 64, 65, 66, 67, 68, 69, 70, 71, 72, 73, 74, 75, 76, 77, 78, 79, 80, 81, 82, 83, 84, 85, 86, 87, 88, 89, 90, 91, 92, 93, 94, 95, 96, 97, 98, 99, 100, 101, 102, 103, 104, 105, 106, 107, 108, 109, 110, 111, 112, 113, 114, 115, 116, 117, 118, 119, 120, 121, 122, 123, 124, 125, 126, 127, 128, 129, 130, 131, 132, 133, 134, 135, 136, 137, 138, 139, 140, 141, 142, 143, 144, 145, 146, 147, 148, 149, 150, 151, 152, 153, 154, 155, 156, 157, 158, 159, 160, 161, 162, 163, 164],
      "LargestImagePixelValue": [1715, 1718, 1698, 1694, 1669, 1698, 1689, 1672, 1662, 1702, 1682, 1674, 1651, 1678, 1692, 1652, 1670, 1682, 1691, 1678, 1680, 1682, 1656, 1674, 1664, 1686, 1640, 1697, 1700, 1662, 1670, 1671, 1690, 1664, 1703, 1672, 1674, 1666, 1649, 1673, 1654, 1683, 1664, 1697, 1693, 1660, 1703, 1675, 1669, 1693, 1681, 1668, 1644, 1687, 1682, 1658, 1665, 1670, 1681, 1680, 1695, 1691, 1684, 1690, 1671, 1675, 1682, 1680, 1673, 1701, 1672, 1710, 1694, 1682, 1677, 1664, 1712, 1653, 1644, 1684, 1682, 1668, 1706, 1690, 1627, 1687, 1708, 1705, 1691, 1735, 1673, 1684, 1676, 1652, 1670, 1675, 1694, 1689, 1654, 1679, 1694, 1696, 1683, 1699, 1699, 1672, 1689, 1672, 1691, 1675, 1681, 1695, 1689, 1680, 1644, 1650, 1666, 1660, 1686, 1689, 1674, 1678, 1687, 1679, 1675, 1662, 1703, 1685, 1690, 1680, 1698, 1686, 1678, 1696, 1672, 1671, 1659, 1704, 1700, 1696, 1678, 1683, 1684, 1689, 1683, 1689, 1696, 1690, 1688, 1674, 1670, 1651, 1676, 1689, 1680, 1680, 1695, 1709, 1695, 1658, 1678, 1691, 1715, 1702],
      "WindowCenter": [741.0, 741.0, 741.0, 740.0, 739.0, 739.0, 739.0, 739.0, 738.0, 738.0, 738.0, 737.0, 738.0, 738.0, 738.0, 738.0, 738.0, 739.0, 739.0, 740.0, 739.0, 739.0, 738.0, 738.0, 738.0, 738.0, 738.0, 738.0, 739.0, 739.0, 738.0, 738.0, 739.0, 738.0, 739.0, 738.0, 738.0, 738.0, 738.0, 737.0, 737.0, 737.0, 737.0, 737.0, 737.0, 737.0, 737.0, 737.0, 737.0, 737.0, 738.0, 739.0, 739.0, 738.0, 739.0, 738.0, 737.0, 738.0, 738.0, 739.0, 739.0, 739.0, 739.0, 738.0, 738.0, 738.0, 738.0, 738.0, 738.0, 739.0, 740.0, 741.0, 739.0, 737.0, 737.0, 736.0, 736.0, 737.0, 737.0, 737.0, 736.0, 736.0, 738.0, 738.0, 737.0, 738.0, 740.0, 740.0, 740.0, 740.0, 739.0, 739.0, 739.0, 738.0, 737.0, 737.0, 738.0, 738.0, 738.0, 738.0, 739.0, 740.0, 740.0, 740.0, 740.0, 740.0, 740.0, 740.0, 740.0, 739.0, 740.0, 741.0, 741.0, 740.0, 739.0, 738.0, 738.0, 738.0, 738.0, 739.0, 739.0, 739.0, 739.0, 739.0, 738.0, 739.0, 740.0, 740.0, 740.0, 739.0, 739.0, 740.0, 740.0, 740.0, 740.0, 740.0, 739.0, 741.0, 742.0, 741.0, 740.0, 739.0, 740.0, 739.0, 739.0, 739.0, 739.0, 739.0, 739.0, 740.0, 740.0, 740.0, 739.0, 740.0, 740.0, 740.0, 741.0, 741.0, 740.0, 739.0, 738.0, 739.0, 739.0, 739.0],
      "WindowWidth": [1601.0, 1598.0, 1598.0, 1596.0, 1592.0, 1593.0, 1593.0, 1593.0, 1591.0, 1591.0, 1592.0, 1589.0, 1591.0, 1591.0, 1592.0, 1590.0, 1591.0, 1592.0, 1594.0, 1595.0, 1594.0, 1592.0, 1590.0, 1590.0, 1590.0, 1591.0, 1590.0, 1591.0, 1594.0, 1593.0, 1592.0, 1591.0, 1593.0, 1592.0, 1593.0, 1592.0, 1592.0, 1592.0, 1589.0, 1589.0, 1589.0, 1589.0, 1589.0, 1588.0, 1588.0, 1588.0, 1590.0, 1589.0, 1589.0, 1588.0, 1590.0, 1593.0, 1593.0, 1591.0, 1593.0, 1590.0, 1589.0, 1591.0, 1591.0, 1593.0, 1594.0, 1593.0, 1592.0, 1592.0, 1591.0, 1591.0, 1592.0, 1592.0, 1590.0, 1594.0, 1596.0, 1599.0, 1593.0, 1589.0, 1587.0, 1585.0, 1586.0, 1588.0, 1587.0, 1588.0, 1587.0, 1585.0, 1590.0, 1590.0, 1588.0, 1590.0, 1595.0, 1596.0, 1597.0, 1595.0, 1593.0, 1593.0, 1593.0, 1590.0, 1589.0, 1589.0, 1590.0, 1590.0, 1590.0, 1592.0, 1593.0, 1596.0, 1596.0, 1597.0, 1597.0, 1597.0, 1597.0, 1596.0, 1595.0, 1594.0, 1596.0, 1598.0, 1599.0, 1596.0, 1593.0, 1592.0, 1592.0, 1591.0, 1592.0, 1593.0, 1595.0, 1594.0, 1592.0, 1593.0, 1592.0, 1593.0, 1595.0, 1595.0, 1595.0, 1594.0, 1593.0, 1596.0, 1595.0, 1596.0, 1595.0, 1595.0, 1593.0, 1598.0, 1601.0, 1599.0, 1595.0, 1594.0, 1595.0, 1593.0, 1595.0, 1594.0, 1594.0, 1593.0, 1593.0, 1595.0, 1596.0, 1595.0, 1593.0, 1596.0, 1596.0, 1594.0, 1599.0, 1599.0, 1597.0, 1592.0, 1590.0, 1592.0, 1594.0, 1593.0]
    },
    "slices": {}
  }
}