{
  "AcquisitionMatrixPE": 64,
  "AcquisitionNumber": 1,
  "AcquisitionTime": "11:42:28.235000",
  "BandwidthPerPixelPhaseEncode": 33.967,
  "BaseResolution": 64,
  "CoilCombinationMethod": "Sum of Squares",
  "CoilString": "C:HEA;HEP",
  "ConversionSoftware": "dcm2niix",
  "ConversionSoftwareVersion": "v1.0.20220720",
  "DerivedVendorReportedEchoSpacing": 0.000460005,
  "DeviceSerialNumber": "35193",
  "DwellTime": 3.1e-06,
  "EchoTime": 0.03,
  "EffectiveEchoSpacing": 0.000460005,
  "FlipAngle": 90,
  "HeudiconvVersion": "1.1.6",
  "ImageOrientationPatientDICOM": [0.999152, 0.0244322, -0.0331453, -0.0244188, 0.999701, 0.000810053],
  "ImageOrientationText": "Tra>Sag(-1.9)",
  "ImageType": [
    "ORIGINAL",
    "PRIMARY",
    "M",
    "ND",
    "MOSAIC"
],
  "ImagingFrequency": 123.254,
  "InPlanePhaseEncodingDirectionDICOM": "COL",
  "InstitutionAddress": "Xinjiekouwai Street No 19,Beijing,Haidian District,CN,100875",
  "InstitutionName": "BNU MRI Center",
  "InstitutionalDepartmentName": "Department",
  "MRAcquisitionType": "2D",
  "MagneticFieldStrength": 3,
  "Manufacturer": "Siemens",
  "ManufacturersModelName": "TrioTim",
  "MatrixCoilMode": "SENSE",
  "Modality": "MR",
  "NonlinearGradientCorrection": false,
  "PartialFourier": 1,
  "PatientPosition": "HFS",
  "PercentPhaseFOV": 100,
  "PercentSampling": 100,
  "PhaseEncodingDirection": "j-",
  "PhaseEncodingSteps": 64,
  "PhaseResolution": 1,
  "PixelBandwidth": 2520,
  "ProcedureStepDescription": "BNU_cst_2015^Guo.TaoMei",
  "ProtocolName": "ge_func_3x3x4_164",
  "PulseSequenceDetails": "%SiemensSeq%\\ep2d_bold",
  "ReceiveCoilName": "HeadMatrix",
  "ReconMatrixPE": 64,
  "RepetitionTime": 2,
  "SAR": 0.140272,
  "ScanOptions": "FS",
  "ScanningSequence": "EP",
  "SequenceName": "*epfid2d1_64",
  "SequenceVariant": "SK",
  "SeriesDescription": "ge_func_3x3x4_164",
  "SeriesNumber": 3,
  "ShimSetting": [-4497, -19333, -9862, 971, -140, -268, 55, -49],
  "SliceThickness": 4,
  "SliceTiming": [0, 1.035, 0.0625, 1.095, 0.1225, 1.1575, 0.1825, 1.2175, 0.245, 1.2775, 0.305, 1.34, 0.365, 1.4, 0.4275, 1.46, 0.4875, 1.5225, 0.5475, 1.5825, 0.61, 1.6425, 0.67, 1.705, 0.73, 1.765, 0.7925, 1.825, 0.8525, 1.8875, 0.9125, 1.9475, 0.975],
  "SoftwareVersions": "syngo MR B17",
  "SpacingBetweenSlices": 4.6,
  "StationName": "MRC35193",
  "TaskName": "CognitiveControl",
  "TotalReadoutTime": 0.0289803,
  "TxRefAmp": 349.843,
  "dcmmeta_affine": [
    [-3.122349500656128, -0.07630867511034012, -0.15251383185386658, 110.11856842041016],
    [-0.07635065168142319, 3.1240670680999756, -6.833219767798937e-09, -82.9329833984375],
    [-0.10357900708913803, -0.002531415084376931, 4.597471237182617, -81.63641357421875],
    [0.0, 0.0, 0.0, 1.0]
],
  "dcmmeta_reorient_transform": [
    [0.0, -1.0, 0.0, 63.0],
    [1.0, 0.0, 0.0, 0.0],
    [0.0, 0.0, 1.0, 0.0],
    [0.0, 0.0, 0.0, 1.0]
],
  "dcmmeta_shape": [64, 64, 33, 164],
  "dcmmeta_slice_dim": 2,
  "dcmmeta_version": 0.6,
  "global": {
    "const": {
      "AcquisitionMatrix": [64, 0, 0, 64],
      "AngioFlag": "N",
      "BitsAllocated": 16,
      "BitsStored": 12,
      "Columns": 384,
      "EchoNumbers": 1,
      "EchoTime": 30.0,
      "EchoTrainLength": 1,
      "FlipAngle": 90.0,
      "HighBit": 11,
      "ImageOrientationPatient": [0.99915186905419, 0.02443220925661, -0.0331452819624, -0.0244187768661, 0.99970148902102, 0.00081005278976],
      "ImagePositionPatient": [-592.67766678289, -625.95009811697, -65.628281441725],
      "ImageType": [
        "ORIGINAL",
        "PRIMARY",
        "M",
        "ND",
        "MOSAIC"
],
      "ImagedNucleus": "1H",
      "ImagingFrequency": 123.253738,
      "InPlanePhaseEncodingDirection": "COL",
      "MRAcquisitionType": "2D",
      "MagneticFieldStrength": 3.0,
      "Manufacturer": "SIEMENS",
      "ManufacturerModelName": "TrioTim",
      "Modality": "MR",
      "NumberOfAverages": 1.0,
      "NumberOfPhaseEncodingSteps": 64,
      "PercentPhaseFieldOfView": 100.0,
      "PercentSampling": 100.0,
      "PerformedProcedureStepStartTime": "113315.062000",
      "PhotometricInterpretation": "MONOCHROME2",
      "PixelBandwidth": 2520.0,
      "PixelRepresentation": 0,
      "PixelSpacing": [3.125, 3.125],
      "ProtocolName": "ge_func_3x3x4_164",
      "RepetitionTime": 2000.0,
      "Rows": 384,
      "SAR": 0.14027226352512,
      "SamplesPerPixel": 1,
      "ScanOptions": "FS",
      "ScanningSequence": "EP",
      "SequenceName": "*epfid2d1_64",
      "SequenceVariant": "SK",
      "SeriesDescription": "ge_func_3x3x4_164",
      "SeriesNumber": 3,
      "SeriesTime": "114323.562000",
      "SliceLocation": -85.242535184423,
      "SliceThickness": 4.0,
      "SmallestImagePixelValue": 0,
      "SoftwareVersions": "syngo MR B17",
      "SpacingBetweenSlices": 4.6000001244522,
      "SpecificCharacterSet": "ISO_IR 100",
      "StudyID": "1",
      "StudyTime": "113314.984000",
      "TransmitCoilName": "Body",
      "VariableFlipAngleFlag": "N",
      "WindowCenterWidthExplanation": "Algo1",
      "dBdt": 0.0},
    "slices": {}
  },
  "time": {
    "samples": {
      "AcquisitionNumber": [1, 2, 3, 4, 5, 6, 7, 8, 9, 10, 11, 12, 13, 14, 15, 16, 17, 18, 19, 20, 21, 22, 23, 24, 25, 26, 27, 28, 29, 30, 31, 32, 33, 34, 35, 36, 37, 38, 39, 40, 41, 42, 43, 44, 45, 46, 47, 48, 49, 50, 51, 52, 53, 54, 55, 56, 57, 58, 59, 60, 61, 62, 63, 64, 65, 66, 67, 68, 69, 70, 71, 72, 73, 74, 75, 76, 77, 78, 79, 80, 81, 82, 83, 84, 85, 86, 87, 88, 89, 90, 91, 92, 93, 94, 95, 96, 97, 98, 99, 100, 101, 102, 103, 104, 105, 106, 107, 108, 109, 110, 111, 112, 113, 114, 115, 116, 117, 118, 119, 120, 121, 122, 123, 124, 125, 126, 127, 128, 129, 130, 131, 132, 133, 134, 135, 136, 137, 138, 139, 140, 141, 142, 143, 144, 145, 146, 147, 148, 149, 150, 151, 152, 153, 154, 155, 156, 157, 158, 159, 160, 161, 162, 163, 164],
      "AcquisitionTime": ["114228.235000", "114230.245000", "114232.252500", "114234.260000", "114236.267500", "114238.277500", "114240.285000", "114242.292500", "114244.300000", "114246.307500", "114248.317500", "114250.325000", "114252.332500", "114254.340000", "114256.347500", "114258.357500", "114300.365000", "114302.372500", "114304.380000", "114306.390000", "114308.397500", "114310.405000", "114312.412500", "114314.420000", "114316.430000", "114318.437500", "114320.445000", "114322.452500", "114324.460000", "114326.470000", "114328.477500", "114330.485000", "114332.492500", "114334.502500", "114336.510000", "114338.517500", "114340.525000", "114342.532500", "114344.542500", "114346.550000", "114348.557500", "114350.565000", "114352.572500", "114354.582500", "114356.590000", "114358.597500", "114400.605000", "114402.612500", "114404.622500", "114406.630000", "114408.637500", "114410.645000", "114412.655000", "114414.662500", "114416.670000", "114418.677500", "114420.685000", "114422.695000", "114424.702500", "114426.710000", "114428.717500", "114430.725000", "114432.735000", "114434.742500", "114436.750000", "114438.757500", "114440.767500", "114442.775000", "114444.782500", "114446.790000", "114448.797500", "114450.807500", "114452.815000", "114454.822500", "114456.830000", "114458.837500", "114500.847500", "114502.855000", "114504.862500", "114506.870000", "114508.880000", "114510.887500", "114512.895000", "114514.902500", "114516.910000", "114518.920000", "114520.927500", "114522.935000", "114524.942500", "114526.950000", "114528.960000", "114530.967500", "114532.975000", "114534.982500", "114536.992500", "114539.000000", "114541.007500", "114543.015000", "114545.022500", "114547.032500", "114549.040000", "114551.047500", "114553.055000", "114555.062500", "114557.072500", "114559.080000", "114601.087500", "114603.095000", "114605.102500", "114607.112500", "114609.120000", "114611.127500", "114613.135000", "114615.145000", "114617.152500", "114619.160000", "114621.167500", "114623.175000", "114625.185000", "114627.192500", "114629.200000", "114631.207500", "114633.215000", "114635.225000", "114637.232500", "114639.240000", "114641.247500", "114643.257500", "114645.265000", "114647.272500", "114649.280000", "114651.287500", "114653.297500", "114655.305000", "114657.312500", "114659.320000", "114701.327500", "114703.337500", "114705.345000", "114707.352500", "114709.360000", "114711.370000", "114713.377500", "114715.385000", "114717.392500", "114719.400000", "114721.410000", "114723.417500", "114725.425000", "114727.432500", "114729.440000", "114731.450000", "114733.457500", "114735.465000", "114737.472500", "114739.480000", "114741.490000", "114743.497500", "114745.505000", "114747.512500", "114749.522500", "114751.530000", "114753.537500", "114755.545000"],
      "ContentTime": ["114323.578000", "114323.578000", "114323.578000", "114323.578000", "114323.578000", "114323.578000", "114323.578000", "114323.593000", "114323.593000", "114323.593000", "114323.593000", "114323.593000", "114323.593000", "114323.609000", "114323.609000", "114323.609000", "114323.609000", "114323.609000", "114323.609000", "114323.609000", "114323.625000", "114323.625000", "114323.625000", "114323.625000", "114323.625000", "114323.640000", "114323.640000", "114403.562000", "114403.578000", "114403.578000", "114403.578000", "114403.578000", "114403.578000", "114403.578000", "114403.578000", "114403.593000", "114403.593000", "114403.593000", "114403.593000", "114403.593000", "114403.593000", "114403.593000", "114403.593000", "114403.609000", "114403.609000", "114403.609000", "114403.609000", "114443.562000", "114443.562000", "114443.562000", "114443.562000", "114443.578000", "114443.578000", "114443.578000", "114443.578000", "114443.578000", "114443.593000", "114443.593000", "114443.593000", "114443.593000", "114443.593000", "114443.609000", "114443.609000", "114443.609000", "114443.609000", "114443.609000", "114443.609000", "114523.562000", "114523.562000", "114523.562000", "114523.562000", "114523.578000", "114523.578000", "114523.578000", "114523.578000", "114523.593000", "114523.593000", "114523.593000", "114523.593000", "114523.593000", "114523.593000", "114523.593000", "114523.593000", "114523.609000", "114523.609000", "114523.609000", "114523.609000", "114603.562000", "114603.562000", "114603.562000", "114603.562000", "114603.578000", "114603.578000", "114603.578000", "114603.578000", "114603.593000", "114603.593000", "114603.593000", "114603.593000", "114603.593000", "114603.593000", "114603.593000", "114603.593000", "114603.609000", "114603.609000", "114603.609000", "114603.609000", "114643.562000", "114643.562000", "114643.562000", "114643.562000", "114643.578000", "114643.578000", "114643.578000", "114643.578000", "114643.578000", "114643.593000", "114643.593000", "114643.593000", "114643.593000", "114643.593000", "114643.593000", "114643.593000", "114643.609000", "114643.609000", "114643.609000", "114643.609000", "114723.562000", "114723.562000", "114723.562000", "114723.562000", "114723.578000", "114723.578000", "114723.578000", "114723.578000", "114723.578000", "114723.578000", "114723.593000", "114723.593000", "114723.593000", "114723.593000", "114723.593000", "114723.593000", "114723.593000", "114723.609000", "114723.609000", "114723.609000", "114756.625000", "114756.625000", "114756.640000", "114756.640000", "114756.640000", "114756.640000", "114756.640000", "114756.656000", "114756.656000", "114756.656000", "114756.656000", "114756.656000", "114756.656000", "114756.656000", "114756.671000", "114756.671000", "114756.671000"],
      "InstanceCreationTime": ["114323.578000", "114323.578000", "114323.578000", "114323.578000", "114323.578000", "114323.578000", "114323.578000", "114323.593000", "114323.593000", "114323.593000", "114323.593000", "114323.593000", "114323.593000", "114323.609000", "114323.609000", "114323.609000", "114323.609000", "114323.609000", "114323.609000", "114323.609000", "114323.625000", "114323.625000", "114323.625000", "114323.625000", "114323.625000", "114323.640000", "114323.640000", "114403.562000", "114403.578000", "114403.578000", "114403.578000", "114403.578000", "114403.578000", "114403.578000", "114403.578000", "114403.593000", "114403.593000", "114403.593000", "114403.593000", "114403.593000", "114403.593000", "114403.593000", "114403.593000", "114403.609000", "114403.609000", "114403.609000", "114403.609000", "114443.562000", "114443.562000", "114443.562000", "114443.562000", "114443.578000", "114443.578000", "114443.578000", "114443.578000", "114443.578000", "114443.593000", "114443.593000", "114443.593000", "114443.593000", "114443.593000", "114443.609000", "114443.609000", "114443.609000", "114443.609000", "114443.609000", "114443.609000", "114523.562000", "114523.562000", "114523.562000", "114523.562000", "114523.578000", "114523.578000", "114523.578000", "114523.578000", "114523.593000", "114523.593000", "114523.593000", "114523.593000", "114523.593000", "114523.593000", "114523.593000", "114523.593000", "114523.609000", "114523.609000", "114523.609000", "114523.609000", "114603.562000", "114603.562000", "114603.562000", "114603.562000", "114603.578000", "114603.578000", "114603.578000", "114603.578000", "114603.593000", "114603.593000", "114603.593000", "114603.593000", "114603.593000", "114603.593000", "114603.593000", "114603.593000", "114603.609000", "114603.609000", "114603.609000", "114603.609000", "114643.562000", "114643.562000", "114643.562000", "114643.562000", "114643.578000", "114643.578000", "114643.578000", "114643.578000", "114643.578000", "114643.593000", "114643.593000", "114643.593000", "114643.593000", "114643.593000", "114643.593000", "114643.593000", "114643.609000", "114643.609000", "114643.609000", "114643.609000", "114723.562000", "114723.562000", "114723.562000", "114723.562000", "114723.578000", "114723.578000", "114723.578000", "114723.578000", "114723.578000", "114723.578000", "114723.593000", "114723.593000", "114723.593000", "114723.593000", "114723.593000", "114723.593000", "114723.593000", "114723.609000", "114723.609000", "114723.609000", "114756.625000", "114756.625000", "114756.640000", "114756.640000", "114756.640000", "114756.640000", "114756.640000", "114756.656000", "114756.656000", "114756.656000", "114756.656000", "114756.656000", "114756.656000", "114756.656000", "114756.671000", "114756.671000", "114756.671000"],
      "InstanceNumber": [1, 2, 3, 4, 5, 6, 7, 8, 9, 10, 11, 12, 13, 14, 15, 16, 17, 18, 19, 20, 21, 22, 23, 24, 25, 26, 27, 28, 29, 30, 31, 32, 33, 34, 35, 36, 37, 38, 39, 40, 41, 42, 43, 44, 45, 46, 47, 48, 49, 50, 51, 52, 53, 54, 55, 56, 57, 58, 59, 60, 61, 62, 63, 64, 65, 66, 67, 68, 69, 70, 71, 72, 73, 74, 75, 76, 77, 78, 79, 80, 81, 82, 83, 84, 85, 86, 87, 88, 89, 90, 91, 92, 93, 94, 95, 96, 97, 98, 99, 100, 101, 102, 103, 104, 105, 106, 107, 108, 109, 110, 111, 112, 113, 114, 115, 116, 117, 118, 119, 120, 121, 122, 123, 124, 125, 126, 127, 128, 129, 130, 131, 132, 133, 134, 135, 136, 137, 138, 139, 140, 141, 142, 143, 144, 145, 146, 147, 148, 149, 150, 151, 152, 153, 154, 155, 156, 157, 158, 159, 160, 161, 162, 163, 164],
      "LargestImagePixelValue": [1809, 1734, 1710, 1701, 1691, 1709, 1693, 1694, 1691, 1710, 1692, 1699, 1682, 1706, 1665, 1700, 1698, 1694, 1716, 1685, 1703, 1675, 1701, 1691, 1720, 1673, 1643, 1685, 1697, 1685, 1675, 1677, 1709, 1671, 1700, 1698, 1696, 1714, 1674, 1721, 1717, 1692, 1698, 1705, 1704, 1692, 1684, 1700, 1719, 1679, 1671, 1684, 1662, 1679, 1661, 1699, 1686, 1683, 1704, 1690, 1721, 1669, 1704, 1700, 1728, 1709, 1662, 1668, 1654, 1666, 1685, 1678, 1705, 1676, 1673, 1676, 1663, 1688, 1646, 1677, 1701, 1714, 1705, 1673, 1713, 1686, 1720, 1665, 1704, 1704, 1686, 1688, 1674, 1671, 1705, 1686, 1683, 1648, 1666, 1665, 1692, 1711, 1709, 1714, 1690, 1685, 1686, 1702, 1683, 1665, 1685, 1679, 1695, 1680, 1708, 1672, 1706, 1721, 1740, 1717, 1730, 1700, 1708, 1714, 1694, 1731, 1699, 1702, 1713, 1697, 1701, 1714, 1722, 1689, 1704, 1707, 1705, 1676, 1730, 1700, 1681, 1708, 1714, 1696, 1689, 1718, 1686, 1687, 1687, 1680, 1695, 1745, 1735, 1731, 1674, 1686, 1693, 1731, 1735, 1694, 1714, 1725, 1735, 1715],
      "WindowCenter": [740.0, 738.0, 737.0, 737.0, 736.0, 736.0, 736.0, 736.0, 735.0, 735.0, 735.0, 735.0, 734.0, 734.0, 734.0, 734.0, 734.0, 734.0, 734.0, 734.0, 735.0, 735.0, 734.0, 734.0, 734.0, 734.0, 734.0, 734.0, 734.0, 734.0, 733.0, 733.0, 734.0, 733.0, 733.0, 734.0, 735.0, 736.0, 734.0, 734.0, 734.0, 734.0, 735.0, 735.0, 735.0, 734.0, 735.0, 735.0, 735.0, 735.0, 735.0, 735.0, 735.0, 736.0, 736.0, 736.0, 736.0, 736.0, 735.0, 735.0, 736.0, 736.0, 736.0, 736.0, 736.0, 735.0, 734.0, 734.0, 734.0, 735.0, 735.0, 735.0, 735.0, 735.0, 735.0, 735.0, 735.0, 735.0, 735.0, 735.0, 736.0, 736.0, 735.0, 735.0, 736.0, 736.0, 736.0, 735.0, 736.0, 735.0, 735.0, 735.0, 736.0, 736.0, 736.0, 735.0, 735.0, 734.0, 733.0, 734.0, 735.0, 735.0, 735.0, 736.0, 736.0, 735.0, 735.0, 736.0, 735.0, 735.0, 734.0, 734.0, 734.0, 735.0, 735.0, 735.0, 736.0, 736.0, 737.0, 737.0, 737.0, 736.0, 736.0, 736.0, 736.0, 736.0, 737.0, 737.0, 737.0, 736.0, 736.0, 736.0, 735.0, 736.0, 736.0, 736.0, 736.0, 736.0, 737.0, 736.0, 736.0, 735.0, 735.0, 735.0, 735.0, 735.0, 736.0, 736.0, 736.0, 735.0, 735.0, 736.0, 737.0, 736.0, 735.0, 735.0, 736.0, 736.0, 737.0, 737.0, 737.0, 737.0, 738.0, 737.0],
      "WindowWidth": [1599.0, 1592.0, 1590.0, 1588.0, 1587.0, 1587.0, 1587.0, 1585.0, 1584.0, 1585.0, 1584.0, 1583.0, 1581.0, 1583.0, 1581.0, 1582.0, 1582.0, 1582.0, 1582.0, 1582.0, 1585.0, 1583.0, 1582.0, 1582.0, 1583.0, 1581.0, 1582.0, 1582.0, 1582.0, 1581.0, 1579.0, 1580.0, 1581.0, 1579.0, 1579.0, 1583.0, 1585.0, 1586.0, 1582.0, 1582.0, 1583.0, 1583.0, 1583.0, 1584.0, 1583.0, 1582.0, 1583.0, 1584.0, 1585.0, 1585.0, 1585.0, 1585.0, 1584.0, 1586.0, 1586.0, 1587.0, 1586.0, 1586.0, 1585.0, 1585.0, 1588.0, 1586.0, 1586.0, 1587.0, 1587.0, 1584.0, 1583.0, 1583.0, 1582.0, 1583.0, 1583.0, 1583.0, 1584.0, 1584.0, 1584.0, 1584.0, 1583.0, 1585.0, 1584.0, 1585.0, 1588.0, 1588.0, 1585.0, 1584.0, 1586.0, 1586.0, 1587.0, 1585.0, 1586.0, 1585.0, 1584.0, 1585.0, 1586.0, 1588.0, 1587.0, 1585.0, 1583.0, 1580.0, 1579.0, 1580.0, 1584.0, 1584.0, 1584.0, 1587.0, 1586.0, 1584.0, 1583.0, 1586.0, 1584.0, 1583.0, 1582.0, 1580.0, 1581.0, 1582.0, 1584.0, 1584.0, 1585.0, 1585.0, 1588.0, 1588.0, 1588.0, 1587.0, 1587.0, 1587.0, 1586.0, 1587.0, 1588.0, 1589.0, 1588.0, 1587.0, 1586.0, 1585.0, 1585.0, 1585.0, 1587.0, 1586.0, 1585.0, 1585.0, 1589.0, 1587.0, 1586.0, 1584.0, 1583.0, 1583.0, 1583.0, 1585.0, 1588.0, 1588.0, 1586.0, 1585.0, 1585.0, 1587.0, 1588.0, 1587.0, 1584.0, 1583.0, 1586.0, 1587.0, 1588.0, 1588.0, 1589.0, 1590.0, 1591.0, 1589.0]
    },
    "slices": {}
  }
}