{
  "AcquisitionMatrixPE": 64,
  "AcquisitionNumber": 1,
  "AcquisitionTime": "11:15:57.175000",
  "BandwidthPerPixelPhaseEncode": 33.967,
  "BaseResolution": 64,
  "CoilCombinationMethod": "Sum of Squares",
  "CoilString": "C:HEA;HEP",
  "ConversionSoftware": "dcm2niix",
  "ConversionSoftwareVersion": "v1.0.20220720",
  "DerivedVendorReportedEchoSpacing": 0.000460005,
  "DeviceSerialNumber": "35193",
  "DwellTime": 3.1e-06,
  "EchoTime": 0.03,
  "EffectiveEchoSpacing": 0.000460005,
  "FlipAngle": 90,
  "HeudiconvVersion": "1.1.6",
  "ImageOrientationPatientDICOM": [0.99981, -0.00349067, -0.0191973, 0.00349003, 0.999994, -6.70118e-05],
  "ImageOrientationText": "Tra>Sag(-1.1)",
  "ImageType": [
    "ORIGINAL",
    "PRIMARY",
    "M",
    "ND",
    "MOSAIC"
],
  "ImagingFrequency": 123.254,
  "InPlanePhaseEncodingDirectionDICOM": "COL",
  "InstitutionAddress": "Xinjiekouwai Street No 19,Beijing,Haidian District,CN,100875",
  "InstitutionName": "Beijing Normal Universtiy/4C3F54/",
  "InstitutionalDepartmentName": "Department",
  "MRAcquisitionType": "2D",
  "MagneticFieldStrength": 3,
  "Manufacturer": "Siemens",
  "ManufacturersModelName": "TrioTim",
  "MatrixCoilMode": "SENSE",
  "Modality": "MR",
  "NonlinearGradientCorrection": false,
  "PartialFourier": 1,
  "PatientPosition": "HFS",
  "PercentPhaseFOV": 100,
  "PercentSampling": 100,
  "PhaseEncodingDirection": "j-",
  "PhaseEncodingSteps": 64,
  "PhaseResolution": 1,
  "PixelBandwidth": 2520,
  "ProcedureStepDescription": "BNU_cst_2015^Guo.TaoMei",
  "ProtocolName": "ge_func_3x3x4_164",
  "PulseSequenceDetails": "%SiemensSeq%\\ep2d_bold",
  "ReceiveCoilName": "HeadMatrix",
  "ReconMatrixPE": 64,
  "RepetitionTime": 2,
  "SAR": 0.1484,
  "ScanOptions": "FS",
  "ScanningSequence": "EP",
  "SequenceName": "*epfid2d1_64",
  "SequenceVariant": "SK",
  "SeriesDescription": "ge_func_3x3x4_164",
  "SeriesNumber": 5,
  "ShimSetting": [-4495, -19440, -9827, 1020, -174, -511, 174, -12],
  "SliceThickness": 4,
  "SliceTiming": [0, 1.035, 0.0625, 1.095, 0.1225, 1.1575, 0.1825, 1.2175, 0.245, 1.2775, 0.305, 1.34, 0.365, 1.4, 0.4275, 1.46, 0.4875, 1.5225, 0.5475, 1.5825, 0.61, 1.6425, 0.67, 1.705, 0.73, 1.765, 0.7925, 1.825, 0.8525, 1.8875, 0.9125, 1.9475, 0.975],
  "SoftwareVersions": "syngo MR B17",
  "SpacingBetweenSlices": 4.6,
  "StationName": "MRC35193",
  "TaskName": "LanguageControl",
  "TotalReadoutTime": 0.0289803,
  "TxRefAmp": 352.338,
  "dcmmeta_affine": [
    [-3.1244051456451416, 0.010906343348324299, -0.08830823004245758, 113.20037841796875],
    [0.010908354073762894, 3.124980926513672, 8.731289580232726e-10, -79.68130493164062],
    [-0.059991639107465744, 0.00020941189723089337, 4.599152088165283, -61.552711486816406],
    [0.0, 0.0, 0.0, 1.0]
],
  "dcmmeta_reorient_transform": [
    [0.0, -1.0, 0.0, 63.0],
    [1.0, 0.0, 0.0, 0.0],
    [0.0, 0.0, 1.0, 0.0],
    [0.0, 0.0, 0.0, 1.0]
],
  "dcmmeta_shape": [64, 64, 33, 164],
  "dcmmeta_slice_dim": 2,
  "dcmmeta_version": 0.6,
  "global": {
    "const": {
      "AcquisitionMatrix": [64, 0, 0, 64],
      "AngioFlag": "N",
      "BitsAllocated": 16,
      "BitsStored": 12,
      "Columns": 384,
      "EchoNumbers": 1,
      "EchoTime": 30.0,
      "EchoTrainLength": 1,
      "FlipAngle": 90.0,
      "HighBit": 11,
      "ImageOrientationPatient": [0.99980962083479, -0.0034906732245, -0.0191973249862, 0.00349002993943, 0.99999390758166, -6.70118068e-05],
      "ImagePositionPatient": [-615.53730084051, -615.44411018521, -51.907351751105],
      "ImageType": [
        "ORIGINAL",
        "PRIMARY",
        "M",
        "ND",
        "MOSAIC"
],
      "ImagedNucleus": "1H",
      "ImagingFrequency": 123.253683,
      "InPlanePhaseEncodingDirection": "COL",
      "MRAcquisitionType": "2D",
      "MagneticFieldStrength": 3.0,
      "Manufacturer": "SIEMENS",
      "ManufacturerModelName": "TrioTim",
      "Modality": "MR",
      "NumberOfAverages": 1.0,
      "NumberOfPhaseEncodingSteps": 64,
      "PercentPhaseFieldOfView": 100.0,
      "PercentSampling": 100.0,
      "PerformedProcedureStepStartTime": "105437.656000",
      "PhotometricInterpretation": "MONOCHROME2",
      "PixelBandwidth": 2520.0,
      "PixelRepresentation": 0,
      "PixelSpacing": [3.125, 3.125],
      "ProtocolName": "ge_func_3x3x4_164",
      "RepetitionTime": 2000.0,
      "Rows": 384,
      "SAR": 0.1483998875205,
      "SamplesPerPixel": 1,
      "ScanOptions": "FS",
      "ScanningSequence": "EP",
      "SequenceName": "*epfid2d1_64",
      "SequenceVariant": "SK",
      "SeriesDescription": "ge_func_3x3x4_164",
      "SeriesNumber": 5,
      "SeriesTime": "111642.140000",
      "SliceLocation": -63.714527336504,
      "SliceThickness": 4.0,
      "SmallestImagePixelValue": 0,
      "SoftwareVersions": "syngo MR B17",
      "SpacingBetweenSlices": 4.5999999318178,
      "SpecificCharacterSet": "ISO_IR 100",
      "StudyID": "2",
      "StudyTime": "105437.609000",
      "TransmitCoilName": "Body",
      "VariableFlipAngleFlag": "N",
      "WindowCenterWidthExplanation": "Algo1",
      "dBdt": 0.0},
    "slices": {}
  },
  "time": {
    "samples": {
      "AcquisitionNumber": [1, 2, 3, 4, 5, 6, 7, 8, 9, 10, 11, 12, 13, 14, 15, 16, 17, 18, 19, 20, 21, 22, 23, 24, 25, 26, 27, 28, 29, 30, 31, 32, 33, 34, 35, 36, 37, 38, 39, 40, 41, 42, 43, 44, 45, 46, 47, 48, 49, 50, 51, 52, 53, 54, 55, 56, 57, 58, 59, 60, 61, 62, 63, 64, 65, 66, 67, 68, 69, 70, 71, 72, 73, 74, 75, 76, 77, 78, 79, 80, 81, 82, 83, 84, 85, 86, 87, 88, 89, 90, 91, 92, 93, 94, 95, 96, 97, 98, 99, 100, 101, 102, 103, 104, 105, 106, 107, 108, 109, 110, 111, 112, 113, 114, 115, 116, 117, 118, 119, 120, 121, 122, 123, 124, 125, 126, 127, 128, 129, 130, 131, 132, 133, 134, 135, 136, 137, 138, 139, 140, 141, 142, 143, 144, 145, 146, 147, 148, 149, 150, 151, 152, 153, 154, 155, 156, 157, 158, 159, 160, 161, 162, 163, 164],
      "AcquisitionTime": ["111557.175000", "111559.185000", "111601.192500", "111603.200000", "111605.207500", "111607.215000", "111609.225000", "111611.232500", "111613.240000", "111615.247500", "111617.255000", "111619.265000", "111621.272500", "111623.280000", "111625.287500", "111627.297500", "111629.305000", "111631.312500", "111633.320000", "111635.327500", "111637.337500", "111639.345000", "111641.352500", "111643.360000", "111645.367500", "111647.377500", "111649.385000", "111651.392500", "111653.400000", "111655.410000", "111657.417500", "111659.425000", "111701.432500", "111703.440000", "111705.450000", "111707.457500", "111709.465000", "111711.472500", "111713.480000", "111715.490000", "111717.497500", "111719.505000", "111721.512500", "111723.522500", "111725.530000", "111727.537500", "111729.545000", "111731.552500", "111733.562500", "111735.570000", "111737.577500", "111739.585000", "111741.592500", "111743.602500", "111745.610000", "111747.617500", "111749.625000", "111751.635000", "111753.642500", "111755.650000", "111757.657500", "111759.665000", "111801.675000", "111803.682500", "111805.690000", "111807.697500", "111809.705000", "111811.715000", "111813.722500", "111815.730000", "111817.737500", "111819.745000", "111821.755000", "111823.762500", "111825.770000", "111827.777500", "111829.787500", "111831.795000", "111833.802500", "111835.810000", "111837.817500", "111839.827500", "111841.835000", "111843.842500", "111845.850000", "111847.857500", "111849.867500", "111851.875000", "111853.882500", "111855.890000", "111857.900000", "111859.907500", "111901.915000", "111903.922500", "111905.930000", "111907.940000", "111909.947500", "111911.955000", "111913.962500", "111915.970000", "111917.980000", "111919.987500", "111921.995000", "111924.002500", "111926.012500", "111928.020000", "111930.027500", "111932.035000", "111934.042500", "111936.052500", "111938.060000", "111940.067500", "111942.075000", "111944.082500", "111946.092500", "111948.100000", "111950.107500", "111952.115000", "111954.122500", "111956.132500", "111958.140000", "112000.147500", "112002.155000", "112004.165000", "112006.172500", "112008.180000", "112010.187500", "112012.195000", "112014.205000", "112016.212500", "112018.220000", "112020.227500", "112022.235000", "112024.245000", "112026.252500", "112028.260000", "112030.267500", "112032.277500", "112034.285000", "112036.292500", "112038.300000", "112040.307500", "112042.317500", "112044.325000", "112046.332500", "112048.340000", "112050.347500", "112052.357500", "112054.365000", "112056.372500", "112058.380000", "112100.390000", "112102.397500", "112104.405000", "112106.412500", "112108.420000", "112110.430000", "112112.437500", "112114.445000", "112116.452500", "112118.460000", "112120.470000", "112122.477500", "112124.485000"],
      "ContentTime": ["111642.140000", "111642.140000", "111642.140000", "111642.140000", "111642.156000", "111642.156000", "111642.156000", "111642.171000", "111642.171000", "111642.171000", "111642.171000", "111642.171000", "111642.171000", "111642.171000", "111642.171000", "111642.187000", "111642.187000", "111642.187000", "111642.187000", "111642.187000", "111642.203000", "111722.140000", "111722.140000", "111722.140000", "111722.140000", "111722.140000", "111722.140000", "111722.140000", "111722.156000", "111722.156000", "111722.156000", "111722.156000", "111722.171000", "111722.171000", "111722.171000", "111722.171000", "111722.171000", "111722.171000", "111722.171000", "111722.171000", "111722.187000", "111722.187000", "111822.140000", "111822.140000", "111822.140000", "111822.140000", "111822.140000", "111822.140000", "111822.156000", "111822.156000", "111822.156000", "111822.156000", "111822.156000", "111822.156000", "111822.156000", "111822.171000", "111822.171000", "111822.171000", "111822.171000", "111822.171000", "111822.171000", "111822.171000", "111822.171000", "111822.187000", "111822.187000", "111822.187000", "111822.187000", "111822.187000", "111822.187000", "111822.203000", "111822.203000", "111902.140000", "111902.140000", "111902.140000", "111902.140000", "111902.140000", "111902.140000", "111902.140000", "111902.156000", "111902.156000", "111902.156000", "111902.156000", "111902.156000", "111902.156000", "111902.171000", "111902.171000", "111902.171000", "111902.171000", "111902.171000", "111902.171000", "111902.171000", "111942.140000", "111942.140000", "111942.140000", "111942.140000", "111942.156000", "111942.156000", "111942.156000", "111942.156000", "111942.156000", "111942.156000", "111942.156000", "111942.171000", "111942.171000", "111942.171000", "111942.171000", "111942.171000", "111942.171000", "111942.171000", "111942.171000", "111942.187000", "111942.187000", "112002.140000", "112002.140000", "112002.140000", "112002.140000", "112002.140000", "112002.140000", "112002.140000", "112002.156000", "112002.156000", "112002.156000", "112042.140000", "112042.140000", "112042.140000", "112042.140000", "112042.156000", "112042.156000", "112042.156000", "112042.156000", "112042.156000", "112042.156000", "112042.156000", "112042.171000", "112042.171000", "112042.171000", "112042.171000", "112042.171000", "112042.171000", "112042.171000", "112042.171000", "112042.187000", "112122.140000", "112122.140000", "112122.140000", "112122.140000", "112122.140000", "112122.156000", "112122.156000", "112122.156000", "112122.156000", "112122.156000", "112122.171000", "112122.171000", "112122.171000", "112122.171000", "112122.171000", "112122.171000", "112122.171000", "112122.187000", "112122.187000", "112122.187000", "112126.109000", "112126.109000"],
      "InstanceCreationTime": ["111642.140000", "111642.140000", "111642.140000", "111642.140000", "111642.156000", "111642.156000", "111642.156000", "111642.171000", "111642.171000", "111642.171000", "111642.171000", "111642.171000", "111642.171000", "111642.171000", "111642.171000", "111642.187000", "111642.187000", "111642.187000", "111642.187000", "111642.187000", "111642.203000", "111722.140000", "111722.140000", "111722.140000", "111722.140000", "111722.140000", "111722.140000", "111722.140000", "111722.156000", "111722.156000", "111722.156000", "111722.156000", "111722.171000", "111722.171000", "111722.171000", "111722.171000", "111722.171000", "111722.171000", "111722.171000", "111722.171000", "111722.187000", "111722.187000", "111822.140000", "111822.140000", "111822.140000", "111822.140000", "111822.140000", "111822.140000", "111822.156000", "111822.156000", "111822.156000", "111822.156000", "111822.156000", "111822.156000", "111822.156000", "111822.171000", "111822.171000", "111822.171000", "111822.171000", "111822.171000", "111822.171000", "111822.171000", "111822.171000", "111822.187000", "111822.187000", "111822.187000", "111822.187000", "111822.187000", "111822.187000", "111822.203000", "111822.203000", "111902.140000", "111902.140000", "111902.140000", "111902.140000", "111902.140000", "111902.140000", "111902.140000", "111902.156000", "111902.156000", "111902.156000", "111902.156000", "111902.156000", "111902.156000", "111902.171000", "111902.171000", "111902.171000", "111902.171000", "111902.171000", "111902.171000", "111902.171000", "111942.140000", "111942.140000", "111942.140000", "111942.140000", "111942.156000", "111942.156000", "111942.156000", "111942.156000", "111942.156000", "111942.156000", "111942.156000", "111942.171000", "111942.171000", "111942.171000", "111942.171000", "111942.171000", "111942.171000", "111942.171000", "111942.171000", "111942.187000", "111942.187000", "112002.140000", "112002.140000", "112002.140000", "112002.140000", "112002.140000", "112002.140000", "112002.140000", "112002.156000", "112002.156000", "112002.156000", "112042.140000", "112042.140000", "112042.140000", "112042.140000", "112042.156000", "112042.156000", "112042.156000", "112042.156000", "112042.156000", "112042.156000", "112042.156000", "112042.171000", "112042.171000", "112042.171000", "112042.171000", "112042.171000", "112042.171000", "112042.171000", "112042.171000", "112042.187000", "112122.140000", "112122.140000", "112122.140000", "112122.140000", "112122.140000", "112122.156000", "112122.156000", "112122.156000", "112122.156000", "112122.156000", "112122.171000", "112122.171000", "112122.171000", "112122.171000", "112122.171000", "112122.171000", "112122.171000", "112122.187000", "112122.187000", "112122.187000", "112126.109000", "112126.109000"],
      "InstanceNumber": [1, 2, 3, 4, 5, 6, 7, 8, 9, 10, 11, 12, 13, 14, 15, 16, 17, 18, 19, 20, 21, 22, 23, 24, 25, 26, 27, 28, 29, 30, 31, 32, 33, 34, 35, 36, 37, 38, 39, 40, 41, 42, 43, 44, 45, 46, 47, 48, 49, 50, 51, 52, 53, 54, 55, 56, 57, 58, 59, 60, 61, 62, 63, 64, 65, 66, 67, 68, 69, 70, 71, 72, 73, 74, 75, 76, 77, 78, 79, 80, 81, 82, 83, 84, 85, 86, 87, 88, 89, 90, 91, 92, 93, 94, 95, 96, 97, 98, 99, 100, 101, 102, 103, 104, 105, 106, 107, 108, 109, 110, 111, 112, 113, 114, 115, 116, 117, 118, 119, 120, 121, 122, 123, 124, 125, 126, 127, 128, 129, 130, 131, 132, 133, 134, 135, 136, 137, 138, 139, 140, 141, 142, 143, 144, 145, 146, 147, 148, 149, 150, 151, 152, 153, 154, 155, 156, 157, 158, 159, 160, 161, 162, 163, 164],
      "LargestImagePixelValue": [1883, 1856, 1852, 1833, 1817, 1823, 1807, 1801, 1789, 1806, 1788, 1784, 1799, 1791, 1786, 1773, 1784, 1781, 1788, 1784, 1800, 1795, 1766, 1779, 1831, 1799, 1802, 1827, 1776, 1776, 1804, 1773, 1786, 1779, 1809, 1782, 1775, 1790, 1776, 1779, 1780, 1812, 1766, 1788, 1805, 1775, 1756, 1776, 1793, 1791, 1777, 1775, 1780, 1784, 1788, 1785, 1800, 1779, 1790, 1792, 1780, 1806, 1767, 1792, 1779, 1781, 1816, 1778, 1794, 1797, 1768, 1775, 1774, 1788, 1791, 1788, 1774, 1782, 1798, 1773, 1777, 1774, 1772, 1792, 1786, 1829, 1781, 1772, 1779, 1822, 1771, 1788, 1792, 1790, 1790, 1765, 1871, 1729, 1743, 1742, 1746, 1773, 1763, 1753, 1761, 1742, 1748, 1749, 1752, 1754, 1768, 1739, 1794, 1765, 1747, 1740, 1742, 1774, 1778, 1769, 1794, 1788, 1783, 1797, 1766, 1777, 1784, 1761, 1798, 1778, 1782, 1769, 1773, 1795, 1796, 1791, 1790, 1789, 1790, 1779, 1784, 1799, 1824, 1808, 1812, 1812, 1807, 1793, 1797, 1794, 1771, 1760, 1774, 1785, 1754, 1799, 1764, 1743, 1758, 1761, 1776, 1774, 1768, 1786],
      "WindowCenter": [761.0, 759.0, 760.0, 759.0, 758.0, 757.0, 757.0, 757.0, 757.0, 757.0, 757.0, 757.0, 757.0, 759.0, 758.0, 758.0, 757.0, 756.0, 756.0, 757.0, 757.0, 757.0, 758.0, 758.0, 758.0, 757.0, 757.0, 758.0, 758.0, 758.0, 758.0, 758.0, 758.0, 758.0, 758.0, 758.0, 758.0, 759.0, 759.0, 758.0, 758.0, 759.0, 759.0, 758.0, 758.0, 756.0, 756.0, 757.0, 757.0, 757.0, 758.0, 758.0, 758.0, 758.0, 757.0, 758.0, 758.0, 759.0, 759.0, 761.0, 760.0, 759.0, 760.0, 760.0, 758.0, 758.0, 759.0, 759.0, 760.0, 761.0, 760.0, 760.0, 759.0, 759.0, 759.0, 759.0, 759.0, 759.0, 760.0, 759.0, 759.0, 759.0, 759.0, 759.0, 759.0, 759.0, 758.0, 757.0, 758.0, 760.0, 758.0, 758.0, 757.0, 756.0, 756.0, 758.0, 758.0, 756.0, 756.0, 757.0, 758.0, 759.0, 758.0, 758.0, 759.0, 759.0, 758.0, 759.0, 759.0, 760.0, 760.0, 760.0, 761.0, 761.0, 761.0, 761.0, 761.0, 761.0, 762.0, 761.0, 762.0, 761.0, 761.0, 762.0, 762.0, 760.0, 761.0, 760.0, 761.0, 761.0, 761.0, 761.0, 761.0, 761.0, 762.0, 761.0, 762.0, 762.0, 761.0, 761.0, 761.0, 762.0, 761.0, 761.0, 761.0, 761.0, 761.0, 761.0, 762.0, 762.0, 761.0, 761.0, 761.0, 762.0, 762.0, 763.0, 762.0, 762.0, 760.0, 759.0, 761.0, 761.0, 761.0, 760.0],
      "WindowWidth": [1638.0, 1633.0, 1634.0, 1633.0, 1631.0, 1629.0, 1628.0, 1628.0, 1628.0, 1627.0, 1628.0, 1628.0, 1628.0, 1632.0, 1631.0, 1629.0, 1628.0, 1626.0, 1626.0, 1628.0, 1629.0, 1629.0, 1629.0, 1630.0, 1630.0, 1629.0, 1629.0, 1631.0, 1631.0, 1630.0, 1632.0, 1632.0, 1631.0, 1630.0, 1629.0, 1630.0, 1630.0, 1632.0, 1633.0, 1631.0, 1631.0, 1634.0, 1633.0, 1631.0, 1629.0, 1625.0, 1625.0, 1628.0, 1628.0, 1628.0, 1629.0, 1631.0, 1631.0, 1629.0, 1628.0, 1630.0, 1632.0, 1632.0, 1635.0, 1637.0, 1635.0, 1634.0, 1635.0, 1634.0, 1631.0, 1631.0, 1633.0, 1634.0, 1636.0, 1638.0, 1637.0, 1636.0, 1634.0, 1632.0, 1635.0, 1634.0, 1633.0, 1634.0, 1635.0, 1633.0, 1633.0, 1632.0, 1633.0, 1633.0, 1633.0, 1632.0, 1629.0, 1628.0, 1632.0, 1635.0, 1631.0, 1629.0, 1628.0, 1626.0, 1626.0, 1629.0, 1633.0, 1626.0, 1625.0, 1629.0, 1630.0, 1633.0, 1631.0, 1632.0, 1633.0, 1631.0, 1631.0, 1632.0, 1634.0, 1635.0, 1635.0, 1635.0, 1639.0, 1638.0, 1638.0, 1637.0, 1638.0, 1639.0, 1641.0, 1639.0, 1640.0, 1638.0, 1639.0, 1641.0, 1640.0, 1637.0, 1637.0, 1637.0, 1637.0, 1637.0, 1638.0, 1638.0, 1638.0, 1639.0, 1640.0, 1639.0, 1640.0, 1640.0, 1638.0, 1637.0, 1638.0, 1639.0, 1638.0, 1637.0, 1638.0, 1638.0, 1638.0, 1639.0, 1639.0, 1641.0, 1640.0, 1639.0, 1638.0, 1641.0, 1641.0, 1643.0, 1642.0, 1642.0, 1636.0, 1635.0, 1639.0, 1638.0, 1638.0, 1637.0]
    },
    "slices": {}
  }
}