{
  "AcquisitionMatrixPE": 64,
  "AcquisitionNumber": 1,
  "AcquisitionTime": "12:15:19.145000",
  "BandwidthPerPixelPhaseEncode": 33.967,
  "BaseResolution": 64,
  "CoilCombinationMethod": "Sum of Squares",
  "CoilString": "C:HEA;HEP",
  "ConversionSoftware": "dcm2niix",
  "ConversionSoftwareVersion": "v1.0.20220720",
  "DerivedVendorReportedEchoSpacing": 0.000460005,
  "DeviceSerialNumber": "35193",
  "DwellTime": 3.1e-06,
  "EchoTime": 0.03,
  "EffectiveEchoSpacing": 0.000460005,
  "FlipAngle": 90,
  "HeudiconvVersion": "1.1.6",
  "ImageOrientationPatientDICOM": [0.99824, 0, 0.0593064, 0, 1, 0],
  "ImageOrientationText": "Tra>Sag(3.4)",
  "ImageType": [
    "ORIGINAL",
    "PRIMARY",
    "M",
    "ND",
    "MOSAIC"
],
  "ImagingFrequency": 123.254,
  "InPlanePhaseEncodingDirectionDICOM": "COL",
  "InstitutionAddress": "Xinjiekouwai Street No 19,Beijing,Haidian District,CN,100875",
  "InstitutionName": "BNU MRI Center",
  "InstitutionalDepartmentName": "Department",
  "MRAcquisitionType": "2D",
  "MagneticFieldStrength": 3,
  "Manufacturer": "Siemens",
  "ManufacturersModelName": "TrioTim",
  "MatrixCoilMode": "SENSE",
  "Modality": "MR",
  "NonlinearGradientCorrection": false,
  "PartialFourier": 1,
  "PatientPosition": "HFS",
  "PercentPhaseFOV": 100,
  "PercentSampling": 100,
  "PhaseEncodingDirection": "j-",
  "PhaseEncodingSteps": 64,
  "PhaseResolution": 1,
  "PixelBandwidth": 2520,
  "ProcedureStepDescription": "BNU_cst_2015^Guo.TaoMei",
  "ProtocolName": "ge_func_3x3x4_164",
  "PulseSequenceDetails": "%SiemensSeq%\\ep2d_bold",
  "ReceiveCoilName": "HeadMatrix",
  "ReconMatrixPE": 64,
  "RepetitionTime": 2,
  "SAR": 0.187542,
  "ScanOptions": "FS",
  "ScanningSequence": "EP",
  "SequenceName": "*epfid2d1_64",
  "SequenceVariant": "SK",
  "SeriesDescription": "ge_func_3x3x4_164",
  "SeriesNumber": 5,
  "ShimSetting": [-4488, -19439, -9808, 1056, -95, -372, -43, -57],
  "SliceThickness": 4,
  "SliceTiming": [0, 1.0325, 0.06, 1.095, 0.12, 1.155, 0.1825, 1.215, 0.2425, 1.2775, 0.3025, 1.3375, 0.365, 1.3975, 0.425, 1.46, 0.485, 1.52, 0.5475, 1.58, 0.6075, 1.6425, 0.6675, 1.7025, 0.73, 1.7625, 0.79, 1.825, 0.85, 1.885, 0.9125, 1.945, 0.9725],
  "SoftwareVersions": "syngo MR B17",
  "SpacingBetweenSlices": 4.6,
  "StationName": "MRC35193",
  "TaskName": "CognitiveControl",
  "TotalReadoutTime": 0.0289803,
  "TxRefAmp": 358.462,
  "dcmmeta_affine": [
    [-3.119499444961548, 0.0, 0.27280932664871216, 98.83252716064453],
    [0.0, 3.125, 0.0, -88.10391235351562],
    [0.18533241748809814, 0.0, 4.591903209686279, -64.5577163696289],
    [0.0, 0.0, 0.0, 1.0]
],
  "dcmmeta_reorient_transform": [
    [0.0, -1.0, 0.0, 63.0],
    [1.0, 0.0, 0.0, 0.0],
    [0.0, 0.0, 1.0, 0.0],
    [0.0, 0.0, 0.0, 1.0]
],
  "dcmmeta_shape": [64, 64, 33, 164],
  "dcmmeta_slice_dim": 2,
  "dcmmeta_version": 0.6,
  "global": {
    "const": {
      "AcquisitionMatrix": [64, 0, 0, 64],
      "AngioFlag": "N",
      "BitsAllocated": 16,
      "BitsStored": 12,
      "Columns": 384,
      "EchoNumbers": 1,
      "EchoTime": 30.0,
      "EchoTrainLength": 1,
      "FlipAngle": 90.0,
      "HighBit": 11,
      "ImageOrientationPatient": [0.99823982793962, 0.0, 0.05930637330917, 0.0, 1.0, 0.0],
      "ImagePositionPatient": [-597.95244162604, -608.77108478546, -94.210902995509],
      "ImageType": [
        "ORIGINAL",
        "PRIMARY",
        "M",
        "ND",
        "MOSAIC"
],
      "ImagedNucleus": "1H",
      "ImagingFrequency": 123.253676,
      "InPlanePhaseEncodingDirection": "COL",
      "MRAcquisitionType": "2D",
      "MagneticFieldStrength": 3.0,
      "Manufacturer": "SIEMENS",
      "ManufacturerModelName": "TrioTim",
      "Modality": "MR",
      "NumberOfAverages": 1.0,
      "NumberOfPhaseEncodingSteps": 64,
      "PercentPhaseFieldOfView": 100.0,
      "PercentSampling": 100.0,
      "PerformedProcedureStepStartTime": "115405.406000",
      "PhotometricInterpretation": "MONOCHROME2",
      "PixelBandwidth": 2520.0,
      "PixelRepresentation": 0,
      "PixelSpacing": [3.125, 3.125],
      "ProtocolName": "ge_func_3x3x4_164",
      "RepetitionTime": 2000.0,
      "Rows": 384,
      "SAR": 0.1875417770356,
      "SamplesPerPixel": 1,
      "ScanOptions": "FS",
      "ScanningSequence": "EP",
      "SequenceName": "*epfid2d1_64",
      "SequenceVariant": "SK",
      "SeriesDescription": "ge_func_3x3x4_164",
      "SeriesNumber": 5,
      "SeriesTime": "121604.250000",
      "SliceLocation": -58.582684872072,
      "SliceThickness": 4.0,
      "SmallestImagePixelValue": 0,
      "SoftwareVersions": "syngo MR B17",
      "SpacingBetweenSlices": 4.6000001199472,
      "SpecificCharacterSet": "ISO_IR 100",
      "StudyID": "1",
      "StudyTime": "115405.328000",
      "TransmitCoilName": "Body",
      "VariableFlipAngleFlag": "N",
      "WindowCenterWidthExplanation": "Algo1",
      "dBdt": 0.0},
    "slices": {}
  },
  "time": {
    "samples": {
      "AcquisitionNumber": [1, 2, 3, 4, 5, 6, 7, 8, 9, 10, 11, 12, 13, 14, 15, 16, 17, 18, 19, 20, 21, 22, 23, 24, 25, 26, 27, 28, 29, 30, 31, 32, 33, 34, 35, 36, 37, 38, 39, 40, 41, 42, 43, 44, 45, 46, 47, 48, 49, 50, 51, 52, 53, 54, 55, 56, 57, 58, 59, 60, 61, 62, 63, 64, 65, 66, 67, 68, 69, 70, 71, 72, 73, 74, 75, 76, 77, 78, 79, 80, 81, 82, 83, 84, 85, 86, 87, 88, 89, 90, 91, 92, 93, 94, 95, 96, 97, 98, 99, 100, 101, 102, 103, 104, 105, 106, 107, 108, 109, 110, 111, 112, 113, 114, 115, 116, 117, 118, 119, 120, 121, 122, 123, 124, 125, 126, 127, 128, 129, 130, 131, 132, 133, 134, 135, 136, 137, 138, 139, 140, 141, 142, 143, 144, 145, 146, 147, 148, 149, 150, 151, 152, 153, 154, 155, 156, 157, 158, 159, 160, 161, 162, 163, 164],
      "AcquisitionTime": ["121519.145000", "121521.152500", "121523.160000", "121525.167500", "121527.177500", "121529.185000", "121531.192500", "121533.200000", "121535.210000", "121537.217500", "121539.225000", "121541.232500", "121543.240000", "121545.250000", "121547.257500", "121549.265000", "121551.272500", "121553.280000", "121555.290000", "121557.297500", "121559.305000", "121601.312500", "121603.322500", "121605.330000", "121607.337500", "121609.345000", "121611.352500", "121613.362500", "121615.370000", "121617.377500", "121619.385000", "121621.392500", "121623.402500", "121625.410000", "121627.417500", "121629.425000", "121631.432500", "121633.442500", "121635.450000", "121637.457500", "121639.465000", "121641.475000", "121643.482500", "121645.490000", "121647.497500", "121649.505000", "121651.515000", "121653.522500", "121655.530000", "121657.537500", "121659.545000", "121701.555000", "121703.562500", "121705.570000", "121707.577500", "121709.587500", "121711.595000", "121713.602500", "121715.610000", "121717.617500", "121719.627500", "121721.635000", "121723.642500", "121725.650000", "121727.657500", "121729.667500", "121731.675000", "121733.682500", "121735.690000", "121737.700000", "121739.707500", "121741.715000", "121743.722500", "121745.730000", "121747.740000", "121749.747500", "121751.755000", "121753.762500", "121755.770000", "121757.780000", "121759.787500", "121801.795000", "121803.802500", "121805.810000", "121807.820000", "121809.827500", "121811.835000", "121813.842500", "121815.852500", "121817.860000", "121819.867500", "121821.875000", "121823.882500", "121825.892500", "121827.900000", "121829.907500", "121831.915000", "121833.922500", "121835.932500", "121837.940000", "121839.947500", "121841.955000", "121843.965000", "121845.972500", "121847.980000", "121849.987500", "121851.995000", "121854.005000", "121856.012500", "121858.020000", "121900.027500", "121902.035000", "121904.045000", "121906.052500", "121908.060000", "121910.067500", "121912.077500", "121914.085000", "121916.092500", "121918.100000", "121920.107500", "121922.117500", "121924.125000", "121926.132500", "121928.140000", "121930.147500", "121932.157500", "121934.165000", "121936.172500", "121938.180000", "121940.187500", "121942.197500", "121944.205000", "121946.212500", "121948.220000", "121950.230000", "121952.237500", "121954.245000", "121956.252500", "121958.260000", "122000.270000", "122002.277500", "122004.285000", "122006.292500", "122008.300000", "122010.310000", "122012.317500", "122014.325000", "122016.332500", "122018.342500", "122020.350000", "122022.357500", "122024.365000", "122026.372500", "122028.382500", "122030.390000", "122032.397500", "122034.405000", "122036.412500", "122038.422500", "122040.430000", "122042.437500", "122044.445000", "122046.455000"],
      "ContentTime": ["121604.250000", "121604.250000", "121604.250000", "121604.250000", "121604.250000", "121604.265000", "121604.265000", "121604.265000", "121604.281000", "121604.281000", "121604.281000", "121604.281000", "121604.281000", "121604.281000", "121604.281000", "121604.281000", "121604.296000", "121604.296000", "121604.296000", "121604.296000", "121604.296000", "121604.296000", "121644.234000", "121644.250000", "121644.250000", "121644.250000", "121644.250000", "121644.265000", "121644.265000", "121644.265000", "121644.265000", "121644.265000", "121644.265000", "121644.265000", "121644.265000", "121644.281000", "121644.281000", "121644.281000", "121644.281000", "121644.281000", "121644.281000", "121644.281000", "121724.234000", "121724.250000", "121724.250000", "121724.250000", "121724.250000", "121724.250000", "121724.250000", "121724.250000", "121724.265000", "121724.265000", "121724.281000", "121724.281000", "121724.281000", "121724.281000", "121724.281000", "121724.281000", "121724.281000", "121724.296000", "121724.296000", "121724.296000", "121804.234000", "121804.250000", "121804.265000", "121804.265000", "121804.265000", "121804.265000", "121804.265000", "121804.265000", "121804.265000", "121804.281000", "121804.281000", "121804.281000", "121804.281000", "121804.281000", "121804.281000", "121804.281000", "121804.281000", "121804.296000", "121804.296000", "121804.296000", "121844.234000", "121844.250000", "121844.250000", "121844.250000", "121844.250000", "121844.265000", "121844.265000", "121844.265000", "121844.265000", "121844.281000", "121844.281000", "121844.281000", "121844.281000", "121844.281000", "121844.296000", "121844.296000", "121844.296000", "121844.296000", "121844.296000", "121844.312000", "121924.234000", "121924.250000", "121924.250000", "121924.250000", "121924.250000", "121924.265000", "121924.265000", "121924.265000", "121924.265000", "121924.265000", "121924.265000", "121924.265000", "121924.265000", "121924.281000", "121924.281000", "121924.281000", "121924.281000", "121924.281000", "121924.281000", "121924.281000", "122004.234000", "122004.250000", "122004.250000", "122004.250000", "122004.250000", "122004.265000", "122004.265000", "122004.265000", "122004.265000", "122004.265000", "122004.265000", "122004.265000", "122004.265000", "122004.281000", "122004.281000", "122004.281000", "122004.281000", "122004.281000", "122004.281000", "122004.281000", "122044.234000", "122044.250000", "122044.250000", "122044.250000", "122044.250000", "122044.265000", "122044.265000", "122044.265000", "122044.265000", "122044.265000", "122044.265000", "122044.265000", "122044.265000", "122044.281000", "122044.281000", "122044.281000", "122044.281000", "122044.281000", "122044.281000", "122044.281000", "122047.500000", "122047.500000"],
      "InstanceCreationTime": ["121604.250000", "121604.250000", "121604.250000", "121604.250000", "121604.250000", "121604.265000", "121604.265000", "121604.265000", "121604.281000", "121604.281000", "121604.281000", "121604.281000", "121604.281000", "121604.281000", "121604.281000", "121604.281000", "121604.296000", "121604.296000", "121604.296000", "121604.296000", "121604.296000", "121604.296000", "121644.234000", "121644.250000", "121644.250000", "121644.250000", "121644.250000", "121644.265000", "121644.265000", "121644.265000", "121644.265000", "121644.265000", "121644.265000", "121644.265000", "121644.265000", "121644.281000", "121644.281000", "121644.281000", "121644.281000", "121644.281000", "121644.281000", "121644.281000", "121724.234000", "121724.250000", "121724.250000", "121724.250000", "121724.250000", "121724.250000", "121724.250000", "121724.250000", "121724.265000", "121724.265000", "121724.281000", "121724.281000", "121724.281000", "121724.281000", "121724.281000", "121724.281000", "121724.281000", "121724.296000", "121724.296000", "121724.296000", "121804.234000", "121804.250000", "121804.265000", "121804.265000", "121804.265000", "121804.265000", "121804.265000", "121804.265000", "121804.265000", "121804.281000", "121804.281000", "121804.281000", "121804.281000", "121804.281000", "121804.281000", "121804.281000", "121804.281000", "121804.296000", "121804.296000", "121804.296000", "121844.234000", "121844.250000", "121844.250000", "121844.250000", "121844.250000", "121844.265000", "121844.265000", "121844.265000", "121844.265000", "121844.281000", "121844.281000", "121844.281000", "121844.281000", "121844.281000", "121844.296000", "121844.296000", "121844.296000", "121844.296000", "121844.296000", "121844.312000", "121924.234000", "121924.250000", "121924.250000", "121924.250000", "121924.250000", "121924.265000", "121924.265000", "121924.265000", "121924.265000", "121924.265000", "121924.265000", "121924.265000", "121924.265000", "121924.281000", "121924.281000", "121924.281000", "121924.281000", "121924.281000", "121924.281000", "121924.281000", "122004.234000", "122004.250000", "122004.250000", "122004.250000", "122004.250000", "122004.265000", "122004.265000", "122004.265000", "122004.265000", "122004.265000", "122004.265000", "122004.265000", "122004.265000", "122004.281000", "122004.281000", "122004.281000", "122004.281000", "122004.281000", "122004.281000", "122004.281000", "122044.234000", "122044.250000", "122044.250000", "122044.250000", "122044.250000", "122044.265000", "122044.265000", "122044.265000", "122044.265000", "122044.265000", "122044.265000", "122044.265000", "122044.265000", "122044.281000", "122044.281000", "122044.281000", "122044.281000", "122044.281000", "122044.281000", "122044.281000", "122047.500000", "122047.500000"],
      "InstanceNumber": [1, 2, 3, 4, 5, 6, 7, 8, 9, 10, 11, 12, 13, 14, 15, 16, 17, 18, 19, 20, 21, 22, 23, 24, 25, 26, 27, 28, 29, 30, 31, 32, 33, 34, 35, 36, 37, 38, 39, 40, 41, 42, 43, 44, 45, 46, 47, 48, 49, 50, 51, 52, 53, 54, 55, 56, 57, 58, 59, 60, 61, 62, 63, 64, 65, 66, 67, 68, 69, 70, 71, 72, 73, 74, 75, 76, 77, 78, 79, 80, 81, 82, 83, 84, 85, 86, 87, 88, 89, 90, 91, 92, 93, 94, 95, 96, 97, 98, 99, 100, 101, 102, 103, 104, 105, 106, 107, 108, 109, 110, 111, 112, 113, 114, 115, 116, 117, 118, 119, 120, 121, 122, 123, 124, 125, 126, 127, 128, 129, 130, 131, 132, 133, 134, 135, 136, 137, 138, 139, 140, 141, 142, 143, 144, 145, 146, 147, 148, 149, 150, 151, 152, 153, 154, 155, 156, 157, 158, 159, 160, 161, 162, 163, 164],
      "LargestImagePixelValue": [1867, 1810, 1832, 1783, 1792, 1789, 1792, 1784, 1789, 1803, 1794, 1792, 1790, 1788, 1785, 1809, 1809, 1786, 1767, 1779, 1780, 1793, 1791, 1786, 1799, 1790, 1804, 1783, 1774, 1788, 1771, 1781, 1806, 1777, 1775, 1776, 1766, 1785, 1790, 1784, 1783, 1781, 1783, 1776, 1783, 1780, 1793, 1781, 1801, 1764, 1756, 1765, 1768, 2054, 1786, 1794, 1794, 1762, 1781, 1757, 1778, 1756, 1762, 1759, 1772, 1773, 1759, 1789, 1788, 1921, 1779, 1774, 1780, 1767, 1781, 1774, 1766, 1763, 1769, 1764, 1773, 1890, 1767, 1809, 1796, 1777, 1764, 1770, 1775, 1785, 1766, 1778, 1781, 1783, 1778, 1776, 1770, 1780, 1879, 1773, 1780, 1777, 1782, 1942, 1789, 1775, 1783, 1760, 1780, 1766, 1778, 1776, 1786, 1777, 1758, 1759, 1775, 1887, 1772, 1771, 1772, 1796, 1779, 1773, 1788, 1792, 1768, 1784, 1780, 1783, 1773, 1769, 1779, 1804, 1778, 1780, 1798, 1779, 1802, 1787, 1905, 1777, 1766, 1771, 1755, 1774, 1778, 1765, 1764, 1767, 1786, 1764, 1781, 1778, 1761, 1787, 1779, 1785, 1779, 1774, 1779, 1764, 1787, 1781],
      "WindowCenter": [747.0, 744.0, 743.0, 742.0, 741.0, 740.0, 742.0, 740.0, 740.0, 740.0, 740.0, 741.0, 742.0, 742.0, 741.0, 741.0, 741.0, 742.0, 742.0, 742.0, 741.0, 741.0, 741.0, 741.0, 742.0, 742.0, 742.0, 741.0, 742.0, 742.0, 742.0, 741.0, 742.0, 742.0, 742.0, 742.0, 741.0, 741.0, 741.0, 741.0, 741.0, 741.0, 741.0, 741.0, 742.0, 742.0, 743.0, 742.0, 742.0, 743.0, 743.0, 745.0, 743.0, 743.0, 740.0, 741.0, 741.0, 741.0, 741.0, 741.0, 742.0, 741.0, 741.0, 742.0, 742.0, 743.0, 743.0, 743.0, 743.0, 744.0, 742.0, 742.0, 742.0, 742.0, 742.0, 744.0, 743.0, 743.0, 742.0, 743.0, 743.0, 743.0, 741.0, 742.0, 741.0, 742.0, 742.0, 743.0, 743.0, 742.0, 742.0, 742.0, 741.0, 742.0, 742.0, 743.0, 743.0, 742.0, 743.0, 743.0, 743.0, 743.0, 742.0, 743.0, 741.0, 741.0, 741.0, 741.0, 742.0, 743.0, 742.0, 742.0, 742.0, 743.0, 743.0, 744.0, 742.0, 744.0, 744.0, 743.0, 743.0, 743.0, 742.0, 742.0, 742.0, 743.0, 744.0, 745.0, 744.0, 744.0, 744.0, 743.0, 742.0, 742.0, 742.0, 742.0, 741.0, 742.0, 743.0, 742.0, 743.0, 743.0, 743.0, 744.0, 745.0, 744.0, 743.0, 742.0, 741.0, 742.0, 741.0, 743.0, 743.0, 743.0, 743.0, 743.0, 742.0, 743.0, 743.0, 744.0, 743.0, 742.0, 742.0, 741.0],
      "WindowWidth": [1622.0, 1612.0, 1610.0, 1607.0, 1604.0, 1603.0, 1606.0, 1602.0, 1603.0, 1602.0, 1602.0, 1606.0, 1606.0, 1607.0, 1604.0, 1605.0, 1604.0, 1607.0, 1608.0, 1606.0, 1604.0, 1604.0, 1604.0, 1605.0, 1607.0, 1606.0, 1606.0, 1605.0, 1607.0, 1606.0, 1607.0, 1606.0, 1608.0, 1607.0, 1606.0, 1607.0, 1605.0, 1605.0, 1605.0, 1604.0, 1603.0, 1604.0, 1605.0, 1604.0, 1606.0, 1607.0, 1609.0, 1607.0, 1606.0, 1609.0, 1610.0, 1615.0, 1610.0, 1612.0, 1602.0, 1605.0, 1604.0, 1605.0, 1605.0, 1605.0, 1607.0, 1605.0, 1604.0, 1606.0, 1606.0, 1610.0, 1611.0, 1610.0, 1610.0, 1611.0, 1607.0, 1606.0, 1607.0, 1606.0, 1609.0, 1612.0, 1611.0, 1610.0, 1608.0, 1609.0, 1609.0, 1610.0, 1604.0, 1606.0, 1605.0, 1607.0, 1608.0, 1610.0, 1610.0, 1607.0, 1606.0, 1607.0, 1605.0, 1607.0, 1608.0, 1611.0, 1611.0, 1608.0, 1609.0, 1610.0, 1610.0, 1609.0, 1606.0, 1609.0, 1605.0, 1605.0, 1603.0, 1605.0, 1609.0, 1611.0, 1608.0, 1608.0, 1607.0, 1610.0, 1611.0, 1611.0, 1608.0, 1612.0, 1612.0, 1609.0, 1609.0, 1610.0, 1607.0, 1608.0, 1608.0, 1611.0, 1614.0, 1615.0, 1613.0, 1611.0, 1611.0, 1609.0, 1607.0, 1608.0, 1607.0, 1605.0, 1604.0, 1606.0, 1608.0, 1607.0, 1610.0, 1609.0, 1610.0, 1612.0, 1615.0, 1613.0, 1611.0, 1607.0, 1604.0, 1606.0, 1605.0, 1609.0, 1608.0, 1608.0, 1609.0, 1608.0, 1608.0, 1609.0, 1610.0, 1612.0, 1610.0, 1607.0, 1605.0, 1605.0]
    },
    "slices": {}
  }
}