{
  "AcquisitionMatrixPE": 64,
  "AcquisitionNumber": 1,
  "AcquisitionTime": "10:50:15.890000",
  "BandwidthPerPixelPhaseEncode": 33.967,
  "BaseResolution": 64,
  "CoilCombinationMethod": "Sum of Squares",
  "CoilString": "C:HEA;HEP",
  "ConversionSoftware": "dcm2niix",
  "ConversionSoftwareVersion": "v1.0.20220720",
  "DerivedVendorReportedEchoSpacing": 0.000460005,
  "DeviceSerialNumber": "35193",
  "DwellTime": 3.1e-06,
  "EchoTime": 0.03,
  "EffectiveEchoSpacing": 0.000460005,
  "FlipAngle": 90,
  "HeudiconvVersion": "1.1.6",
  "ImageOrientationPatientDICOM": [0.999391, -2e-16, -0.0348995, 2e-16, 1, 0],
  "ImageOrientationText": "Tra>Sag(-2.0)",
  "ImageType": [
    "ORIGINAL",
    "PRIMARY",
    "M",
    "ND",
    "MOSAIC"
],
  "ImagingFrequency": 123.254,
  "InPlanePhaseEncodingDirectionDICOM": "COL",
  "InstitutionAddress": "Xinjiekouwai Street No 19,Beijing,Haidian District,CN,100875",
  "InstitutionName": "Beijing Normal Universtiy/577BC4/",
  "InstitutionalDepartmentName": "Department",
  "MRAcquisitionType": "2D",
  "MagneticFieldStrength": 3,
  "Manufacturer": "Siemens",
  "ManufacturersModelName": "TrioTim",
  "MatrixCoilMode": "SENSE",
  "Modality": "MR",
  "NonlinearGradientCorrection": false,
  "PartialFourier": 1,
  "PatientPosition": "HFS",
  "PercentPhaseFOV": 100,
  "PercentSampling": 100,
  "PhaseEncodingDirection": "j-",
  "PhaseEncodingSteps": 64,
  "PhaseResolution": 1,
  "PixelBandwidth": 2520,
  "ProcedureStepDescription": "BNU_cst_2015^Guo.TaoMei",
  "ProtocolName": "ge_func_3x3x4_164",
  "PulseSequenceDetails": "%SiemensSeq%\\ep2d_bold",
  "ReceiveCoilName": "HeadMatrix",
  "ReconMatrixPE": 64,
  "RepetitionTime": 2,
  "SAR": 0.13215,
  "ScanOptions": "FS",
  "ScanningSequence": "EP",
  "SequenceName": "*epfid2d1_64",
  "SequenceVariant": "SK",
  "SeriesDescription": "ge_func_3x3x4_164",
  "SeriesNumber": 5,
  "ShimSetting": [-4504, -19360, -9890, 1248, -244, -503, 54, -31],
  "SliceThickness": 4,
  "SliceTiming": [0, 1.035, 0.0625, 1.095, 0.1225, 1.1575, 0.1825, 1.2175, 0.245, 1.2775, 0.305, 1.34, 0.365, 1.4, 0.4275, 1.46, 0.4875, 1.5225, 0.5475, 1.5825, 0.61, 1.6425, 0.67, 1.705, 0.73, 1.765, 0.7925, 1.825, 0.8525, 1.8875, 0.9125, 1.9475, 0.975],
  "SoftwareVersions": "syngo MR B17",
  "SpacingBetweenSlices": 4.6,
  "StationName": "MRC35193",
  "TaskName": "LanguageControl",
  "TotalReadoutTime": 0.0289803,
  "TxRefAmp": 356.359,
  "dcmmeta_affine": [
    [-3.123096227645874, 6.249999890322938e-16, -0.1605376899242401, 97.78479766845703],
    [6.249999890322938e-16, 3.125, 3.21075382543929e-17, -85.40512084960938],
    [-0.10906093567609787, 0.0, 4.597197532653809, -89.63147735595703],
    [0.0, 0.0, 0.0, 1.0]
],
  "dcmmeta_reorient_transform": [
    [0.0, -1.0, 0.0, 63.0],
    [1.0, 0.0, 0.0, 0.0],
    [0.0, 0.0, 1.0, 0.0],
    [0.0, 0.0, 0.0, 1.0]
],
  "dcmmeta_shape": [64, 64, 33, 164],
  "dcmmeta_slice_dim": 2,
  "dcmmeta_version": 0.6,
  "global": {
    "const": {
      "AcquisitionMatrix": [64, 0, 0, 64],
      "AngioFlag": "N",
      "BitsAllocated": 16,
      "BitsStored": 12,
      "Columns": 384,
      "EchoNumbers": 1,
      "EchoTime": 30.0,
      "EchoTrainLength": 1,
      "FlipAngle": 90.0,
      "HighBit": 11,
      "ImageOrientationPatient": [0.99939082696012, -2e-16, -0.0348994983914, 2e-16, 1.0, 0.0],
      "ImagePositionPatient": [-597.48020764572, -611.46987915039, -72.181730408527],
      "ImageType": [
        "ORIGINAL",
        "PRIMARY",
        "M",
        "ND",
        "MOSAIC"
],
      "ImagedNucleus": "1H",
      "ImagingFrequency": 123.253885,
      "InPlanePhaseEncodingDirection": "COL",
      "MRAcquisitionType": "2D",
      "MagneticFieldStrength": 3.0,
      "Manufacturer": "SIEMENS",
      "ManufacturerModelName": "TrioTim",
      "Modality": "MR",
      "NumberOfAverages": 1.0,
      "NumberOfPhaseEncodingSteps": 64,
      "PercentPhaseFieldOfView": 100.0,
      "PercentSampling": 100.0,
      "PerformedProcedureStepStartTime": "102859.343000",
      "PhotometricInterpretation": "MONOCHROME2",
      "PixelBandwidth": 2520.0,
      "PixelRepresentation": 0,
      "PixelSpacing": [3.125, 3.125],
      "ProtocolName": "ge_func_3x3x4_164",
      "RepetitionTime": 2000.0,
      "Rows": 384,
      "SAR": 0.13215021317667,
      "SamplesPerPixel": 1,
      "ScanOptions": "FS",
      "ScanningSequence": "EP",
      "SequenceName": "*epfid2d1_64",
      "SequenceVariant": "SK",
      "SeriesDescription": "ge_func_3x3x4_164",
      "SeriesNumber": 5,
      "SeriesTime": "105101.437000",
      "SliceLocation": -92.989518790008,
      "SliceThickness": 4.0,
      "SmallestImagePixelValue": 0,
      "SoftwareVersions": "syngo MR B17",
      "SpacingBetweenSlices": 4.5999999667225,
      "SpecificCharacterSet": "ISO_IR 100",
      "StudyID": "1",
      "StudyTime": "102858.593000",
      "TransmitCoilName": "Body",
      "VariableFlipAngleFlag": "N",
      "WindowCenterWidthExplanation": "Algo1",
      "dBdt": 0.0},
    "slices": {}
  },
  "time": {
    "samples": {
      "AcquisitionNumber": [1, 2, 3, 4, 5, 6, 7, 8, 9, 10, 11, 12, 13, 14, 15, 16, 17, 18, 19, 20, 21, 22, 23, 24, 25, 26, 27, 28, 29, 30, 31, 32, 33, 34, 35, 36, 37, 38, 39, 40, 41, 42, 43, 44, 45, 46, 47, 48, 49, 50, 51, 52, 53, 54, 55, 56, 57, 58, 59, 60, 61, 62, 63, 64, 65, 66, 67, 68, 69, 70, 71, 72, 73, 74, 75, 76, 77, 78, 79, 80, 81, 82, 83, 84, 85, 86, 87, 88, 89, 90, 91, 92, 93, 94, 95, 96, 97, 98, 99, 100, 101, 102, 103, 104, 105, 106, 107, 108, 109, 110, 111, 112, 113, 114, 115, 116, 117, 118, 119, 120, 121, 122, 123, 124, 125, 126, 127, 128, 129, 130, 131, 132, 133, 134, 135, 136, 137, 138, 139, 140, 141, 142, 143, 144, 145, 146, 147, 148, 149, 150, 151, 152, 153, 154, 155, 156, 157, 158, 159, 160, 161, 162, 163, 164],
      "AcquisitionTime": ["105015.890000", "105017.900000", "105019.907500", "105021.915000", "105023.922500", "105025.930000", "105027.940000", "105029.947500", "105031.955000", "105033.962500", "105035.972500", "105037.980000", "105039.987500", "105041.995000", "105044.002500", "105046.012500", "105048.020000", "105050.027500", "105052.035000", "105054.042500", "105056.052500", "105058.060000", "105100.067500", "105102.075000", "105104.082500", "105106.092500", "105108.100000", "105110.107500", "105112.115000", "105114.125000", "105116.132500", "105118.140000", "105120.147500", "105122.155000", "105124.165000", "105126.172500", "105128.180000", "105130.187500", "105132.195000", "105134.205000", "105136.212500", "105138.220000", "105140.227500", "105142.237500", "105144.245000", "105146.252500", "105148.260000", "105150.267500", "105152.277500", "105154.285000", "105156.292500", "105158.300000", "105200.307500", "105202.317500", "105204.325000", "105206.332500", "105208.340000", "105210.350000", "105212.357500", "105214.365000", "105216.372500", "105218.380000", "105220.390000", "105222.397500", "105224.405000", "105226.412500", "105228.420000", "105230.430000", "105232.437500", "105234.445000", "105236.452500", "105238.460000", "105240.470000", "105242.477500", "105244.485000", "105246.492500", "105248.502500", "105250.510000", "105252.517500", "105254.525000", "105256.532500", "105258.542500", "105300.550000", "105302.557500", "105304.565000", "105306.572500", "105308.582500", "105310.590000", "105312.597500", "105314.605000", "105316.615000", "105318.622500", "105320.630000", "105322.637500", "105324.645000", "105326.655000", "105328.662500", "105330.670000", "105332.677500", "105334.685000", "105336.695000", "105338.702500", "105340.710000", "105342.717500", "105344.727500", "105346.735000", "105348.742500", "105350.750000", "105352.757500", "105354.767500", "105356.775000", "105358.782500", "105400.790000", "105402.797500", "105404.807500", "105406.815000", "105408.822500", "105410.830000", "105412.837500", "105414.847500", "105416.855000", "105418.862500", "105420.870000", "105422.880000", "105424.887500", "105426.895000", "105428.902500", "105430.910000", "105432.920000", "105434.927500", "105436.935000", "105438.942500", "105440.950000", "105442.960000", "105444.967500", "105446.975000", "105448.982500", "105450.992500", "105453.000000", "105455.007500", "105457.015000", "105459.022500", "105501.032500", "105503.040000", "105505.047500", "105507.055000", "105509.062500", "105511.072500", "105513.080000", "105515.087500", "105517.095000", "105519.105000", "105521.112500", "105523.120000", "105525.127500", "105527.135000", "105529.145000", "105531.152500", "105533.160000", "105535.167500", "105537.175000", "105539.185000", "105541.192500", "105543.200000"],
      "ContentTime": ["105101.437000", "105101.437000", "105101.453000", "105101.453000", "105101.453000", "105101.453000", "105101.453000", "105101.453000", "105101.453000", "105101.453000", "105101.453000", "105101.468000", "105101.468000", "105101.468000", "105101.468000", "105101.468000", "105101.468000", "105101.468000", "105101.468000", "105101.484000", "105101.484000", "105101.484000", "105141.437000", "105141.437000", "105141.437000", "105141.437000", "105141.437000", "105141.437000", "105141.453000", "105141.453000", "105141.453000", "105141.453000", "105141.453000", "105141.453000", "105141.468000", "105141.468000", "105141.468000", "105141.468000", "105141.468000", "105141.468000", "105141.468000", "105141.484000", "105221.437000", "105221.437000", "105221.437000", "105221.437000", "105221.437000", "105221.437000", "105221.453000", "105221.453000", "105221.453000", "105221.453000", "105221.468000", "105221.468000", "105221.468000", "105221.468000", "105221.468000", "105221.468000", "105221.484000", "105221.484000", "105221.484000", "105221.484000", "105301.437000", "105301.437000", "105301.437000", "105301.437000", "105301.453000", "105301.453000", "105301.453000", "105301.453000", "105301.453000", "105301.453000", "105301.468000", "105301.468000", "105301.468000", "105301.468000", "105301.468000", "105301.484000", "105301.484000", "105301.484000", "105301.484000", "105301.484000", "105341.437000", "105341.437000", "105341.437000", "105341.453000", "105341.453000", "105341.453000", "105341.453000", "105341.453000", "105341.453000", "105341.453000", "105341.468000", "105341.468000", "105341.468000", "105341.468000", "105341.468000", "105341.468000", "105341.484000", "105341.484000", "105341.484000", "105341.484000", "105421.437000", "105421.437000", "105421.437000", "105421.437000", "105421.437000", "105421.437000", "105421.453000", "105421.453000", "105421.453000", "105421.453000", "105421.453000", "105421.453000", "105421.453000", "105421.453000", "105421.468000", "105421.468000", "105421.468000", "105421.468000", "105421.468000", "105421.468000", "105501.437000", "105501.437000", "105501.437000", "105501.437000", "105501.453000", "105501.453000", "105501.453000", "105501.453000", "105501.453000", "105501.453000", "105501.468000", "105501.468000", "105501.468000", "105501.468000", "105501.468000", "105501.468000", "105501.468000", "105501.468000", "105501.484000", "105501.484000", "105541.437000", "105541.437000", "105541.437000", "105541.437000", "105541.437000", "105541.437000", "105541.453000", "105541.453000", "105541.453000", "105541.453000", "105541.453000", "105541.453000", "105541.453000", "105541.453000", "105541.468000", "105541.468000", "105541.468000", "105541.468000", "105541.468000", "105541.468000", "105544.171000", "105544.171000"],
      "InstanceCreationTime": ["105101.437000", "105101.437000", "105101.453000", "105101.453000", "105101.453000", "105101.453000", "105101.453000", "105101.453000", "105101.453000", "105101.453000", "105101.453000", "105101.468000", "105101.468000", "105101.468000", "105101.468000", "105101.468000", "105101.468000", "105101.468000", "105101.468000", "105101.484000", "105101.484000", "105101.484000", "105141.437000", "105141.437000", "105141.437000", "105141.437000", "105141.437000", "105141.437000", "105141.453000", "105141.453000", "105141.453000", "105141.453000", "105141.453000", "105141.453000", "105141.468000", "105141.468000", "105141.468000", "105141.468000", "105141.468000", "105141.468000", "105141.468000", "105141.484000", "105221.437000", "105221.437000", "105221.437000", "105221.437000", "105221.437000", "105221.437000", "105221.453000", "105221.453000", "105221.453000", "105221.453000", "105221.468000", "105221.468000", "105221.468000", "105221.468000", "105221.468000", "105221.468000", "105221.484000", "105221.484000", "105221.484000", "105221.484000", "105301.437000", "105301.437000", "105301.437000", "105301.437000", "105301.453000", "105301.453000", "105301.453000", "105301.453000", "105301.453000", "105301.453000", "105301.468000", "105301.468000", "105301.468000", "105301.468000", "105301.468000", "105301.484000", "105301.484000", "105301.484000", "105301.484000", "105301.484000", "105341.437000", "105341.437000", "105341.437000", "105341.453000", "105341.453000", "105341.453000", "105341.453000", "105341.453000", "105341.453000", "105341.453000", "105341.468000", "105341.468000", "105341.468000", "105341.468000", "105341.468000", "105341.468000", "105341.484000", "105341.484000", "105341.484000", "105341.484000", "105421.437000", "105421.437000", "105421.437000", "105421.437000", "105421.437000", "105421.437000", "105421.453000", "105421.453000", "105421.453000", "105421.453000", "105421.453000", "105421.453000", "105421.453000", "105421.453000", "105421.468000", "105421.468000", "105421.468000", "105421.468000", "105421.468000", "105421.468000", "105501.437000", "105501.437000", "105501.437000", "105501.437000", "105501.453000", "105501.453000", "105501.453000", "105501.453000", "105501.453000", "105501.453000", "105501.468000", "105501.468000", "105501.468000", "105501.468000", "105501.468000", "105501.468000", "105501.468000", "105501.468000", "105501.484000", "105501.484000", "105541.437000", "105541.437000", "105541.437000", "105541.437000", "105541.437000", "105541.437000", "105541.453000", "105541.453000", "105541.453000", "105541.453000", "105541.453000", "105541.453000", "105541.453000", "105541.453000", "105541.468000", "105541.468000", "105541.468000", "105541.468000", "105541.468000", "105541.468000", "105544.171000", "105544.171000"],
      "InstanceNumber": [1, 2, 3, 4, 5, 6, 7, 8, 9, 10, 11, 12, 13, 14, 15, 16, 17, 18, 19, 20, 21, 22, 23, 24, 25, 26, 27, 28, 29, 30, 31, 32, 33, 34, 35, 36, 37, 38, 39, 40, 41, 42, 43, 44, 45, 46, 47, 48, 49, 50, 51, 52, 53, 54, 55, 56, 57, 58, 59, 60, 61, 62, 63, 64, 65, 66, 67, 68, 69, 70, 71, 72, 73, 74, 75, 76, 77, 78, 79, 80, 81, 82, 83, 84, 85, 86, 87, 88, 89, 90, 91, 92, 93, 94, 95, 96, 97, 98, 99, 100, 101, 102, 103, 104, 105, 106, 107, 108, 109, 110, 111, 112, 113, 114, 115, 116, 117, 118, 119, 120, 121, 122, 123, 124, 125, 126, 127, 128, 129, 130, 131, 132, 133, 134, 135, 136, 137, 138, 139, 140, 141, 142, 143, 144, 145, 146, 147, 148, 149, 150, 151, 152, 153, 154, 155, 156, 157, 158, 159, 160, 161, 162, 163, 164],
      "LargestImagePixelValue": [1724, 1735, 1707, 1667, 1697, 1658, 1669, 1692, 1671, 1658, 1675, 1663, 1662, 1680, 1684, 1698, 1691, 1694, 1718, 1696, 1703, 1689, 1700, 1715, 1690, 1743, 1712, 1719, 1783, 1748, 1743, 1825, 1756, 1832, 1747, 1729, 1748, 1741, 1744, 1733, 1752, 1753, 1757, 1741, 1764, 1754, 1775, 1747, 1756, 1740, 1749, 1757, 1777, 1778, 1774, 1743, 1764, 1770, 1753, 1747, 1762, 1763, 1756, 1759, 1763, 1764, 1770, 1744, 1768, 1764, 1760, 1749, 1757, 1773, 1760, 1762, 1755, 1770, 1782, 1771, 1752, 1765, 1767, 1743, 1771, 1763, 1760, 1753, 1751, 1753, 1740, 1739, 1741, 1746, 1761, 1822, 1751, 1741, 1734, 1736, 1739, 1758, 1738, 1730, 1743, 1742, 1728, 1755, 1746, 1729, 1730, 1737, 1734, 1739, 1734, 1726, 1847, 1737, 1742, 1812, 1800, 1760, 1728, 1700, 1733, 1728, 1712, 1710, 1710, 1716, 1732, 1710, 1722, 1698, 1701, 1685, 1701, 1701, 1704, 1715, 1714, 1704, 1701, 1666, 1681, 1685, 1689, 1701, 1779, 1701, 1685, 1738, 1670, 1680, 1690, 1666, 1665, 1716, 1686, 1674, 1675, 1668, 1696, 1667],
      "WindowCenter": [708.0, 706.0, 707.0, 707.0, 707.0, 705.0, 705.0, 705.0, 705.0, 705.0, 705.0, 705.0, 705.0, 704.0, 704.0, 705.0, 705.0, 705.0, 705.0, 705.0, 706.0, 705.0, 705.0, 705.0, 704.0, 705.0, 705.0, 705.0, 707.0, 706.0, 705.0, 706.0, 705.0, 705.0, 704.0, 704.0, 705.0, 706.0, 707.0, 706.0, 706.0, 706.0, 706.0, 706.0, 706.0, 705.0, 705.0, 705.0, 706.0, 706.0, 705.0, 705.0, 706.0, 707.0, 706.0, 705.0, 705.0, 706.0, 707.0, 706.0, 706.0, 706.0, 707.0, 706.0, 706.0, 707.0, 706.0, 707.0, 706.0, 706.0, 706.0, 705.0, 706.0, 708.0, 707.0, 707.0, 706.0, 705.0, 708.0, 707.0, 706.0, 706.0, 707.0, 706.0, 706.0, 706.0, 707.0, 707.0, 706.0, 706.0, 707.0, 706.0, 707.0, 708.0, 707.0, 707.0, 707.0, 707.0, 707.0, 706.0, 706.0, 707.0, 707.0, 706.0, 705.0, 705.0, 705.0, 707.0, 708.0, 708.0, 707.0, 706.0, 706.0, 706.0, 706.0, 706.0, 707.0, 708.0, 708.0, 707.0, 706.0, 705.0, 705.0, 706.0, 707.0, 707.0, 706.0, 706.0, 706.0, 706.0, 706.0, 707.0, 707.0, 707.0, 706.0, 706.0, 707.0, 706.0, 706.0, 706.0, 707.0, 706.0, 707.0, 707.0, 707.0, 708.0, 708.0, 706.0, 707.0, 706.0, 706.0, 707.0, 706.0, 706.0, 707.0, 706.0, 706.0, 707.0, 707.0, 706.0, 706.0, 706.0, 708.0, 707.0],
      "WindowWidth": [1533.0, 1527.0, 1531.0, 1530.0, 1530.0, 1524.0, 1526.0, 1526.0, 1525.0, 1523.0, 1523.0, 1526.0, 1526.0, 1522.0, 1521.0, 1524.0, 1524.0, 1525.0, 1524.0, 1523.0, 1527.0, 1525.0, 1524.0, 1525.0, 1523.0, 1524.0, 1524.0, 1524.0, 1530.0, 1528.0, 1525.0, 1526.0, 1523.0, 1525.0, 1521.0, 1523.0, 1525.0, 1527.0, 1529.0, 1529.0, 1527.0, 1528.0, 1528.0, 1529.0, 1526.0, 1523.0, 1524.0, 1526.0, 1529.0, 1528.0, 1525.0, 1525.0, 1529.0, 1530.0, 1528.0, 1526.0, 1525.0, 1528.0, 1529.0, 1527.0, 1529.0, 1528.0, 1529.0, 1526.0, 1527.0, 1529.0, 1529.0, 1529.0, 1528.0, 1528.0, 1526.0, 1524.0, 1528.0, 1532.0, 1531.0, 1529.0, 1526.0, 1526.0, 1533.0, 1531.0, 1527.0, 1527.0, 1529.0, 1527.0, 1528.0, 1528.0, 1530.0, 1529.0, 1529.0, 1528.0, 1529.0, 1529.0, 1531.0, 1534.0, 1531.0, 1530.0, 1529.0, 1531.0, 1530.0, 1527.0, 1528.0, 1530.0, 1530.0, 1528.0, 1525.0, 1524.0, 1526.0, 1529.0, 1534.0, 1534.0, 1531.0, 1527.0, 1527.0, 1528.0, 1528.0, 1526.0, 1530.0, 1532.0, 1532.0, 1530.0, 1526.0, 1524.0, 1524.0, 1526.0, 1530.0, 1528.0, 1526.0, 1526.0, 1528.0, 1526.0, 1527.0, 1530.0, 1531.0, 1529.0, 1527.0, 1527.0, 1529.0, 1528.0, 1527.0, 1528.0, 1528.0, 1528.0, 1530.0, 1530.0, 1530.0, 1533.0, 1533.0, 1528.0, 1528.0, 1527.0, 1528.0, 1530.0, 1526.0, 1527.0, 1528.0, 1527.0, 1526.0, 1529.0, 1530.0, 1527.0, 1526.0, 1528.0, 1532.0, 1529.0]
    },
    "slices": {}
  }
}