{
  "AcquisitionMatrixPE": 64,
  "AcquisitionNumber": 1,
  "AcquisitionTime": "10:31:12.127500",
  "BandwidthPerPixelPhaseEncode": 33.967,
  "BaseResolution": 64,
  "CoilCombinationMethod": "Sum of Squares",
  "CoilString": "C:HEA;HEP",
  "ConversionSoftware": "dcm2niix",
  "ConversionSoftwareVersion": "v1.0.20220720",
  "DerivedVendorReportedEchoSpacing": 0.000460005,
  "DeviceSerialNumber": "35193",
  "DwellTime": 3.1e-06,
  "EchoTime": 0.03,
  "EffectiveEchoSpacing": 0.000460005,
  "FlipAngle": 90,
  "HeudiconvVersion": "1.1.6",
  "ImageOrientationPatientDICOM": [0.999391, -2e-16, -0.0348995, 2e-16, 1, 0],
  "ImageOrientationText": "Tra>Sag(-2.0)",
  "ImageType": [
    "ORIGINAL",
    "PRIMARY",
    "M",
    "ND",
    "MOSAIC"
],
  "ImagingFrequency": 123.254,
  "InPlanePhaseEncodingDirectionDICOM": "COL",
  "InstitutionAddress": "Xinjiekouwai Street No 19,Beijing,Haidian District,CN,100875",
  "InstitutionName": "Beijing Normal Universtiy/577BC4/",
  "InstitutionalDepartmentName": "Department",
  "MRAcquisitionType": "2D",
  "MagneticFieldStrength": 3,
  "Manufacturer": "Siemens",
  "ManufacturersModelName": "TrioTim",
  "MatrixCoilMode": "SENSE",
  "Modality": "MR",
  "NonlinearGradientCorrection": false,
  "PartialFourier": 1,
  "PatientPosition": "HFS",
  "PercentPhaseFOV": 100,
  "PercentSampling": 100,
  "PhaseEncodingDirection": "j-",
  "PhaseEncodingSteps": 64,
  "PhaseResolution": 1,
  "PixelBandwidth": 2520,
  "ProcedureStepDescription": "BNU_cst_2015^Guo.TaoMei",
  "ProtocolName": "ge_func_3x3x4_164",
  "PulseSequenceDetails": "%SiemensSeq%\\ep2d_bold",
  "ReceiveCoilName": "HeadMatrix",
  "ReconMatrixPE": 64,
  "RepetitionTime": 2,
  "SAR": 0.13215,
  "ScanOptions": "FS",
  "ScanningSequence": "EP",
  "SequenceName": "*epfid2d1_64",
  "SequenceVariant": "SK",
  "SeriesDescription": "ge_func_3x3x4_164",
  "SeriesNumber": 2,
  "ShimSetting": [-4504, -19360, -9890, 1248, -244, -503, 54, -31],
  "SliceThickness": 4,
  "SliceTiming": [0, 1.035, 0.06, 1.095, 0.1225, 1.155, 0.1825, 1.2175, 0.2425, 1.2775, 0.305, 1.3375, 0.365, 1.4, 0.425, 1.46, 0.4875, 1.52, 0.5475, 1.5825, 0.6075, 1.6425, 0.67, 1.7025, 0.73, 1.765, 0.79, 1.825, 0.8525, 1.885, 0.9125, 1.9475, 0.9725],
  "SoftwareVersions": "syngo MR B17",
  "SpacingBetweenSlices": 4.6,
  "StationName": "MRC35193",
  "TaskName": "CognitiveControl",
  "TotalReadoutTime": 0.0289803,
  "TxRefAmp": 356.359,
  "dcmmeta_affine": [
    [-3.123096227645874, 6.249999890322938e-16, -0.1605376899242401, 97.78479766845703],
    [6.249999890322938e-16, 3.125, 3.21075382543929e-17, -85.40512084960938],
    [-0.10906093567609787, 0.0, 4.597197532653809, -89.63147735595703],
    [0.0, 0.0, 0.0, 1.0]
],
  "dcmmeta_reorient_transform": [
    [0.0, -1.0, 0.0, 63.0],
    [1.0, 0.0, 0.0, 0.0],
    [0.0, 0.0, 1.0, 0.0],
    [0.0, 0.0, 0.0, 1.0]
],
  "dcmmeta_shape": [64, 64, 33, 164],
  "dcmmeta_slice_dim": 2,
  "dcmmeta_version": 0.6,
  "global": {
    "const": {
      "AcquisitionMatrix": [64, 0, 0, 64],
      "AngioFlag": "N",
      "BitsAllocated": 16,
      "BitsStored": 12,
      "Columns": 384,
      "EchoNumbers": 1,
      "EchoTime": 30.0,
      "EchoTrainLength": 1,
      "FlipAngle": 90.0,
      "HighBit": 11,
      "ImageOrientationPatient": [0.99939082696012, -2e-16, -0.0348994983914, 2e-16, 1.0, 0.0],
      "ImagePositionPatient": [-597.48020764572, -611.46987915039, -72.181730408527],
      "ImageType": [
        "ORIGINAL",
        "PRIMARY",
        "M",
        "ND",
        "MOSAIC"
],
      "ImagedNucleus": "1H",
      "ImagingFrequency": 123.253877,
      "InPlanePhaseEncodingDirection": "COL",
      "MRAcquisitionType": "2D",
      "MagneticFieldStrength": 3.0,
      "Manufacturer": "SIEMENS",
      "ManufacturerModelName": "TrioTim",
      "Modality": "MR",
      "NumberOfAverages": 1.0,
      "NumberOfPhaseEncodingSteps": 64,
      "PercentPhaseFieldOfView": 100.0,
      "PercentSampling": 100.0,
      "PerformedProcedureStepStartTime": "102859.343000",
      "PhotometricInterpretation": "MONOCHROME2",
      "PixelBandwidth": 2520.0,
      "PixelRepresentation": 0,
      "PixelSpacing": [3.125, 3.125],
      "ProtocolName": "ge_func_3x3x4_164",
      "RepetitionTime": 2000.0,
      "Rows": 384,
      "SAR": 0.13215021317667,
      "SamplesPerPixel": 1,
      "ScanOptions": "FS",
      "ScanningSequence": "EP",
      "SequenceName": "*epfid2d1_64",
      "SequenceVariant": "SK",
      "SeriesDescription": "ge_func_3x3x4_164",
      "SeriesNumber": 2,
      "SeriesTime": "103201.437000",
      "SliceLocation": -92.989518790008,
      "SliceThickness": 4.0,
      "SmallestImagePixelValue": 0,
      "SoftwareVersions": "syngo MR B17",
      "SpacingBetweenSlices": 4.5999999667225,
      "SpecificCharacterSet": "ISO_IR 100",
      "StudyID": "1",
      "StudyTime": "102858.593000",
      "TransmitCoilName": "Body",
      "VariableFlipAngleFlag": "N",
      "WindowCenterWidthExplanation": "Algo1",
      "dBdt": 0.0},
    "slices": {}
  },
  "time": {
    "samples": {
      "AcquisitionNumber": [1, 2, 3, 4, 5, 6, 7, 8, 9, 10, 11, 12, 13, 14, 15, 16, 17, 18, 19, 20, 21, 22, 23, 24, 25, 26, 27, 28, 29, 30, 31, 32, 33, 34, 35, 36, 37, 38, 39, 40, 41, 42, 43, 44, 45, 46, 47, 48, 49, 50, 51, 52, 53, 54, 55, 56, 57, 58, 59, 60, 61, 62, 63, 64, 65, 66, 67, 68, 69, 70, 71, 72, 73, 74, 75, 76, 77, 78, 79, 80, 81, 82, 83, 84, 85, 86, 87, 88, 89, 90, 91, 92, 93, 94, 95, 96, 97, 98, 99, 100, 101, 102, 103, 104, 105, 106, 107, 108, 109, 110, 111, 112, 113, 114, 115, 116, 117, 118, 119, 120, 121, 122, 123, 124, 125, 126, 127, 128, 129, 130, 131, 132, 133, 134, 135, 136, 137, 138, 139, 140, 141, 142, 143, 144, 145, 146, 147, 148, 149, 150, 151, 152, 153, 154, 155, 156, 157, 158, 159, 160, 161, 162, 163, 164],
      "AcquisitionTime": ["103112.127500", "103114.135000", "103116.142500", "103118.152500", "103120.160000", "103122.167500", "103124.175000", "103126.185000", "103128.192500", "103130.200000", "103132.207500", "103134.215000", "103136.225000", "103138.232500", "103140.240000", "103142.247500", "103144.255000", "103146.265000", "103148.272500", "103150.280000", "103152.287500", "103154.295000", "103156.305000", "103158.312500", "103200.320000", "103202.327500", "103204.337500", "103206.345000", "103208.352500", "103210.360000", "103212.367500", "103214.377500", "103216.385000", "103218.392500", "103220.400000", "103222.407500", "103224.417500", "103226.425000", "103228.432500", "103230.440000", "103232.450000", "103234.457500", "103236.465000", "103238.472500", "103240.480000", "103242.490000", "103244.497500", "103246.505000", "103248.512500", "103250.520000", "103252.530000", "103254.537500", "103256.545000", "103258.552500", "103300.562500", "103302.570000", "103304.577500", "103306.585000", "103308.592500", "103310.602500", "103312.610000", "103314.617500", "103316.625000", "103318.632500", "103320.642500", "103322.650000", "103324.657500", "103326.665000", "103328.672500", "103330.682500", "103332.690000", "103334.697500", "103336.705000", "103338.715000", "103340.722500", "103342.730000", "103344.737500", "103346.745000", "103348.755000", "103350.762500", "103352.770000", "103354.777500", "103356.785000", "103358.795000", "103400.802500", "103402.810000", "103404.817500", "103406.827500", "103408.835000", "103410.842500", "103412.850000", "103414.857500", "103416.867500", "103418.875000", "103420.882500", "103422.890000", "103424.897500", "103426.907500", "103428.915000", "103430.922500", "103432.930000", "103434.940000", "103436.947500", "103438.955000", "103440.962500", "103442.970000", "103444.980000", "103446.987500", "103448.995000", "103451.002500", "103453.010000", "103455.020000", "103457.027500", "103459.035000", "103501.042500", "103503.050000", "103505.060000", "103507.067500", "103509.075000", "103511.082500", "103513.092500", "103515.100000", "103517.107500", "103519.115000", "103521.122500", "103523.132500", "103525.140000", "103527.147500", "103529.155000", "103531.162500", "103533.172500", "103535.180000", "103537.187500", "103539.195000", "103541.205000", "103543.212500", "103545.220000", "103547.227500", "103549.235000", "103551.245000", "103553.252500", "103555.260000", "103557.267500", "103559.275000", "103601.285000", "103603.292500", "103605.300000", "103607.307500", "103609.317500", "103611.325000", "103613.332500", "103615.340000", "103617.347500", "103619.357500", "103621.365000", "103623.372500", "103625.380000", "103627.387500", "103629.397500", "103631.405000", "103633.412500", "103635.420000", "103637.427500", "103639.437500"],
      "ContentTime": ["103201.437000", "103201.437000", "103201.453000", "103201.453000", "103201.453000", "103201.453000", "103201.453000", "103201.453000", "103201.453000", "103201.453000", "103201.468000", "103201.468000", "103201.468000", "103201.468000", "103201.468000", "103201.468000", "103201.484000", "103201.484000", "103201.484000", "103201.484000", "103201.484000", "103201.484000", "103201.484000", "103201.484000", "103241.437000", "103241.437000", "103241.437000", "103241.437000", "103241.437000", "103241.453000", "103241.453000", "103241.453000", "103241.453000", "103241.453000", "103241.453000", "103241.453000", "103241.468000", "103241.468000", "103241.468000", "103241.468000", "103241.468000", "103241.468000", "103241.468000", "103241.468000", "103321.437000", "103321.437000", "103321.453000", "103321.453000", "103321.453000", "103321.453000", "103321.453000", "103321.453000", "103321.453000", "103321.453000", "103321.453000", "103321.468000", "103321.468000", "103321.468000", "103321.468000", "103321.468000", "103321.468000", "103321.468000", "103321.468000", "103321.484000", "103401.437000", "103401.437000", "103401.437000", "103401.437000", "103401.437000", "103401.437000", "103401.453000", "103401.453000", "103401.453000", "103401.468000", "103401.468000", "103401.468000", "103401.468000", "103401.468000", "103401.468000", "103401.468000", "103401.484000", "103401.484000", "103401.484000", "103401.484000", "103441.437000", "103441.437000", "103441.453000", "103441.453000", "103441.453000", "103441.453000", "103441.468000", "103441.468000", "103441.468000", "103441.468000", "103441.468000", "103441.484000", "103441.484000", "103441.484000", "103441.484000", "103441.484000", "103441.484000", "103441.484000", "103441.500000", "103441.500000", "103521.437000", "103521.437000", "103521.437000", "103521.437000", "103521.437000", "103521.437000", "103521.453000", "103521.453000", "103521.453000", "103521.453000", "103521.453000", "103521.453000", "103521.453000", "103521.453000", "103521.468000", "103521.468000", "103521.468000", "103521.468000", "103521.468000", "103521.468000", "103601.437000", "103601.437000", "103601.437000", "103601.437000", "103601.437000", "103601.437000", "103601.453000", "103601.453000", "103601.453000", "103601.453000", "103601.453000", "103601.453000", "103601.468000", "103601.468000", "103601.468000", "103601.468000", "103601.468000", "103601.468000", "103601.468000", "103601.468000", "103640.812000", "103640.812000", "103640.828000", "103640.828000", "103640.828000", "103640.828000", "103640.828000", "103640.828000", "103640.828000", "103640.828000", "103640.828000", "103640.843000", "103640.843000", "103640.843000", "103640.843000", "103640.843000", "103640.843000", "103640.843000", "103640.843000", "103640.859000"],
      "InstanceCreationTime": ["103201.437000", "103201.437000", "103201.453000", "103201.453000", "103201.453000", "103201.453000", "103201.453000", "103201.453000", "103201.453000", "103201.453000", "103201.468000", "103201.468000", "103201.468000", "103201.468000", "103201.468000", "103201.468000", "103201.484000", "103201.484000", "103201.484000", "103201.484000", "103201.484000", "103201.484000", "103201.484000", "103201.484000", "103241.437000", "103241.437000", "103241.437000", "103241.437000", "103241.437000", "103241.453000", "103241.453000", "103241.453000", "103241.453000", "103241.453000", "103241.453000", "103241.453000", "103241.468000", "103241.468000", "103241.468000", "103241.468000", "103241.468000", "103241.468000", "103241.468000", "103241.468000", "103321.437000", "103321.437000", "103321.453000", "103321.453000", "103321.453000", "103321.453000", "103321.453000", "103321.453000", "103321.453000", "103321.453000", "103321.453000", "103321.468000", "103321.468000", "103321.468000", "103321.468000", "103321.468000", "103321.468000", "103321.468000", "103321.468000", "103321.484000", "103401.437000", "103401.437000", "103401.437000", "103401.437000", "103401.437000", "103401.437000", "103401.453000", "103401.453000", "103401.453000", "103401.468000", "103401.468000", "103401.468000", "103401.468000", "103401.468000", "103401.468000", "103401.468000", "103401.484000", "103401.484000", "103401.484000", "103401.484000", "103441.437000", "103441.437000", "103441.453000", "103441.453000", "103441.453000", "103441.453000", "103441.468000", "103441.468000", "103441.468000", "103441.468000", "103441.468000", "103441.484000", "103441.484000", "103441.484000", "103441.484000", "103441.484000", "103441.484000", "103441.484000", "103441.500000", "103441.500000", "103521.437000", "103521.437000", "103521.437000", "103521.437000", "103521.437000", "103521.437000", "103521.453000", "103521.453000", "103521.453000", "103521.453000", "103521.453000", "103521.453000", "103521.453000", "103521.453000", "103521.468000", "103521.468000", "103521.468000", "103521.468000", "103521.468000", "103521.468000", "103601.437000", "103601.437000", "103601.437000", "103601.437000", "103601.437000", "103601.437000", "103601.453000", "103601.453000", "103601.453000", "103601.453000", "103601.453000", "103601.453000", "103601.468000", "103601.468000", "103601.468000", "103601.468000", "103601.468000", "103601.468000", "103601.468000", "103601.468000", "103640.812000", "103640.812000", "103640.828000", "103640.828000", "103640.828000", "103640.828000", "103640.828000", "103640.828000", "103640.828000", "103640.828000", "103640.828000", "103640.843000", "103640.843000", "103640.843000", "103640.843000", "103640.843000", "103640.843000", "103640.843000", "103640.843000", "103640.859000"],
      "InstanceNumber": [1, 2, 3, 4, 5, 6, 7, 8, 9, 10, 11, 12, 13, 14, 15, 16, 17, 18, 19, 20, 21, 22, 23, 24, 25, 26, 27, 28, 29, 30, 31, 32, 33, 34, 35, 36, 37, 38, 39, 40, 41, 42, 43, 44, 45, 46, 47, 48, 49, 50, 51, 52, 53, 54, 55, 56, 57, 58, 59, 60, 61, 62, 63, 64, 65, 66, 67, 68, 69, 70, 71, 72, 73, 74, 75, 76, 77, 78, 79, 80, 81, 82, 83, 84, 85, 86, 87, 88, 89, 90, 91, 92, 93, 94, 95, 96, 97, 98, 99, 100, 101, 102, 103, 104, 105, 106, 107, 108, 109, 110, 111, 112, 113, 114, 115, 116, 117, 118, 119, 120, 121, 122, 123, 124, 125, 126, 127, 128, 129, 130, 131, 132, 133, 134, 135, 136, 137, 138, 139, 140, 141, 142, 143, 144, 145, 146, 147, 148, 149, 150, 151, 152, 153, 154, 155, 156, 157, 158, 159, 160, 161, 162, 163, 164],
      "LargestImagePixelValue": [1759, 1716, 1689, 1715, 1688, 1692, 1679, 1714, 1700, 1707, 1677, 1693, 1702, 1702, 1686, 1676, 1707, 1698, 1714, 1688, 1701, 1701, 1706, 1671, 1684, 1669, 1692, 1686, 1683, 1692, 1688, 1683, 1681, 1691, 1686, 1694, 1690, 1685, 1706, 1666, 1697, 1684, 1688, 1670, 1687, 1701, 1704, 1684, 1681, 1700, 1706, 1678, 1673, 1695, 1690, 1688, 1691, 1671, 1687, 1683, 1681, 1703, 1683, 1699, 1688, 1709, 1689, 1686, 1667, 1687, 1679, 1670, 1697, 1669, 1660, 1697, 1684, 1682, 1674, 1658, 1702, 1685, 1676, 1661, 1686, 1667, 1665, 1673, 1681, 1659, 1663, 1678, 1652, 1656, 1657, 1686, 1688, 1672, 1663, 1669, 1644, 1673, 1662, 1697, 1644, 1683, 1676, 1672, 1658, 1721, 1649, 1683, 1663, 1655, 1654, 1667, 1684, 1661, 1686, 1692, 1675, 1659, 1669, 1669, 1681, 1684, 1673, 1658, 1668, 1651, 1671, 1673, 1657, 1670, 1689, 1672, 1666, 1661, 1689, 1668, 1642, 1645, 1681, 1673, 1659, 1670, 1656, 1671, 1666, 1667, 1712, 1701, 1678, 1755, 1694, 1702, 1700, 1694, 1707, 1703, 1687, 1679, 1678, 1694],
      "WindowCenter": [707.0, 704.0, 704.0, 705.0, 703.0, 702.0, 701.0, 702.0, 702.0, 702.0, 702.0, 701.0, 700.0, 701.0, 702.0, 702.0, 702.0, 701.0, 701.0, 701.0, 702.0, 703.0, 702.0, 700.0, 701.0, 701.0, 702.0, 701.0, 701.0, 702.0, 702.0, 701.0, 701.0, 701.0, 701.0, 701.0, 702.0, 702.0, 701.0, 700.0, 701.0, 702.0, 702.0, 700.0, 699.0, 701.0, 702.0, 702.0, 701.0, 701.0, 701.0, 702.0, 701.0, 700.0, 701.0, 702.0, 702.0, 701.0, 702.0, 701.0, 701.0, 701.0, 701.0, 701.0, 702.0, 701.0, 702.0, 701.0, 701.0, 702.0, 702.0, 703.0, 702.0, 701.0, 701.0, 701.0, 702.0, 701.0, 700.0, 701.0, 703.0, 703.0, 702.0, 701.0, 702.0, 702.0, 701.0, 701.0, 702.0, 702.0, 702.0, 702.0, 700.0, 699.0, 700.0, 701.0, 704.0, 703.0, 701.0, 701.0, 700.0, 702.0, 702.0, 702.0, 701.0, 702.0, 704.0, 703.0, 701.0, 701.0, 701.0, 702.0, 701.0, 702.0, 703.0, 703.0, 702.0, 700.0, 703.0, 704.0, 703.0, 702.0, 702.0, 703.0, 704.0, 703.0, 702.0, 702.0, 702.0, 702.0, 702.0, 703.0, 703.0, 701.0, 702.0, 703.0, 702.0, 702.0, 702.0, 703.0, 702.0, 702.0, 702.0, 704.0, 703.0, 702.0, 702.0, 702.0, 703.0, 704.0, 704.0, 703.0, 702.0, 702.0, 703.0, 703.0, 703.0, 703.0, 704.0, 704.0, 703.0, 702.0, 702.0, 702.0],
      "WindowWidth": [1532.0, 1523.0, 1524.0, 1525.0, 1521.0, 1517.0, 1515.0, 1516.0, 1516.0, 1518.0, 1516.0, 1515.0, 1512.0, 1516.0, 1518.0, 1517.0, 1516.0, 1514.0, 1515.0, 1514.0, 1517.0, 1520.0, 1516.0, 1512.0, 1515.0, 1516.0, 1516.0, 1514.0, 1516.0, 1517.0, 1516.0, 1516.0, 1515.0, 1516.0, 1514.0, 1516.0, 1519.0, 1517.0, 1515.0, 1513.0, 1514.0, 1517.0, 1517.0, 1513.0, 1510.0, 1514.0, 1518.0, 1516.0, 1515.0, 1515.0, 1516.0, 1517.0, 1514.0, 1513.0, 1516.0, 1519.0, 1517.0, 1516.0, 1516.0, 1515.0, 1515.0, 1516.0, 1515.0, 1516.0, 1518.0, 1515.0, 1517.0, 1515.0, 1514.0, 1516.0, 1518.0, 1520.0, 1517.0, 1515.0, 1514.0, 1515.0, 1516.0, 1515.0, 1513.0, 1514.0, 1520.0, 1521.0, 1519.0, 1515.0, 1517.0, 1516.0, 1515.0, 1515.0, 1517.0, 1518.0, 1517.0, 1518.0, 1512.0, 1510.0, 1511.0, 1515.0, 1522.0, 1521.0, 1515.0, 1513.0, 1513.0, 1516.0, 1519.0, 1517.0, 1514.0, 1517.0, 1522.0, 1520.0, 1515.0, 1514.0, 1514.0, 1516.0, 1515.0, 1518.0, 1519.0, 1520.0, 1516.0, 1513.0, 1519.0, 1522.0, 1520.0, 1516.0, 1518.0, 1521.0, 1523.0, 1521.0, 1518.0, 1517.0, 1518.0, 1516.0, 1516.0, 1520.0, 1519.0, 1515.0, 1516.0, 1520.0, 1518.0, 1518.0, 1518.0, 1520.0, 1518.0, 1516.0, 1518.0, 1522.0, 1520.0, 1518.0, 1516.0, 1516.0, 1519.0, 1522.0, 1523.0, 1520.0, 1517.0, 1518.0, 1520.0, 1519.0, 1521.0, 1521.0, 1522.0, 1524.0, 1520.0, 1516.0, 1517.0, 1517.0]
    },
    "slices": {}
  }
}