{
  "AcquisitionMatrixPE": 64,
  "AcquisitionNumber": 1,
  "AcquisitionTime": "09:47:39.800000",
  "BandwidthPerPixelPhaseEncode": 33.967,
  "BaseResolution": 64,
  "CoilCombinationMethod": "Sum of Squares",
  "CoilString": "C:HEA;HEP",
  "ConversionSoftware": "dcm2niix",
  "ConversionSoftwareVersion": "v1.0.20220720",
  "DerivedVendorReportedEchoSpacing": 0.000460005,
  "DeviceSerialNumber": "35193",
  "DwellTime": 3.1e-06,
  "EchoTime": 0.03,
  "EffectiveEchoSpacing": 0.000460005,
  "FlipAngle": 90,
  "HeudiconvVersion": "1.1.6",
  "ImageOrientationPatientDICOM": [1, 0, 0, 0, 1, 0],
  "ImageOrientationText": "Tra",
  "ImageType": [
    "ORIGINAL",
    "PRIMARY",
    "M",
    "ND",
    "MOSAIC"
],
  "ImagingFrequency": 123.254,
  "InPlanePhaseEncodingDirectionDICOM": "COL",
  "InstitutionAddress": "Xinjiekouwai Street No 19,Beijing,Haidian District,CN,100875",
  "InstitutionName": "BNU MRI Center",
  "InstitutionalDepartmentName": "Department",
  "MRAcquisitionType": "2D",
  "MagneticFieldStrength": 3,
  "Manufacturer": "Siemens",
  "ManufacturersModelName": "TrioTim",
  "MatrixCoilMode": "SENSE",
  "Modality": "MR",
  "NonlinearGradientCorrection": false,
  "PartialFourier": 1,
  "PatientPosition": "HFS",
  "PercentPhaseFOV": 100,
  "PercentSampling": 100,
  "PhaseEncodingDirection": "j-",
  "PhaseEncodingSteps": 64,
  "PhaseResolution": 1,
  "PixelBandwidth": 2520,
  "ProcedureStepDescription": "BNU_cst_2015^Guo.TaoMei",
  "ProtocolName": "ge_func_3x3x4_164",
  "PulseSequenceDetails": "%SiemensSeq%\\ep2d_bold",
  "ReceiveCoilName": "HeadMatrix",
  "ReconMatrixPE": 64,
  "RepetitionTime": 2,
  "SAR": 0.176512,
  "ScanOptions": "FS",
  "ScanningSequence": "EP",
  "SequenceName": "*epfid2d1_64",
  "SequenceVariant": "SK",
  "SeriesDescription": "ge_func_3x3x4_164",
  "SeriesNumber": 4,
  "ShimSetting": [-4448, -19450, -9833, 909, 14, -307, 261, -140],
  "SliceThickness": 4,
  "SliceTiming": [0, 1.0325, 0.06, 1.095, 0.12, 1.155, 0.1825, 1.215, 0.2425, 1.2775, 0.3025, 1.3375, 0.365, 1.3975, 0.425, 1.46, 0.485, 1.52, 0.5475, 1.58, 0.6075, 1.6425, 0.6675, 1.7025, 0.73, 1.7625, 0.79, 1.825, 0.85, 1.885, 0.9125, 1.945, 0.9725],
  "SoftwareVersions": "syngo MR B17",
  "SpacingBetweenSlices": 4.6,
  "StationName": "MRC35193",
  "TaskName": "LanguageControl",
  "TotalReadoutTime": 0.0289803,
  "TxRefAmp": 342.958,
  "dcmmeta_affine": [
    [-3.125, 0.0, 0.0, 107.42168426513672],
    [0.0, 3.125, 0.0, -89.45331573486328],
    [0.0, 0.0, 4.599999904632568, -41.21445846557617],
    [0.0, 0.0, 0.0, 1.0]
],
  "dcmmeta_reorient_transform": [
    [0.0, -1.0, 0.0, 63.0],
    [1.0, 0.0, 0.0, 0.0],
    [0.0, 0.0, 1.0, 0.0],
    [0.0, 0.0, 0.0, 1.0]
],
  "dcmmeta_shape": [64, 64, 33, 164],
  "dcmmeta_slice_dim": 2,
  "dcmmeta_version": 0.6,
  "global": {
    "const": {
      "AcquisitionMatrix": [64, 0, 0, 64],
      "AngioFlag": "N",
      "BitsAllocated": 16,
      "BitsStored": 12,
      "Columns": 384,
      "EchoNumbers": 1,
      "EchoTime": 30.0,
      "EchoTrainLength": 1,
      "FlipAngle": 90.0,
      "HighBit": 11,
      "ImageOrientationPatient": [1.0, 0.0, 0.0, 0.0, 1.0, 0.0],
      "ImagePositionPatient": [-607.42168664932, -607.42168664932, -41.214458465576],
      "ImageType": [
        "ORIGINAL",
        "PRIMARY",
        "M",
        "ND",
        "MOSAIC"
],
      "ImagedNucleus": "1H",
      "ImagingFrequency": 123.253581,
      "InPlanePhaseEncodingDirection": "COL",
      "MRAcquisitionType": "2D",
      "MagneticFieldStrength": 3.0,
      "Manufacturer": "SIEMENS",
      "ManufacturerModelName": "TrioTim",
      "Modality": "MR",
      "NumberOfAverages": 1.0,
      "NumberOfPhaseEncodingSteps": 64,
      "PercentPhaseFieldOfView": 100.0,
      "PercentSampling": 100.0,
      "PerformedProcedureStepStartTime": "092429.265000",
      "PhotometricInterpretation": "MONOCHROME2",
      "PixelBandwidth": 2520.0,
      "PixelRepresentation": 0,
      "PixelSpacing": [3.125, 3.125],
      "ProtocolName": "ge_func_3x3x4_164",
      "RepetitionTime": 2000.0,
      "Rows": 384,
      "SAR": 0.1765118556461,
      "SamplesPerPixel": 1,
      "ScanOptions": "FS",
      "ScanningSequence": "EP",
      "SequenceName": "*epfid2d1_64",
      "SequenceVariant": "SK",
      "SeriesDescription": "ge_func_3x3x4_164",
      "SeriesNumber": 4,
      "SeriesTime": "094824.546000",
      "SliceLocation": -41.214458465576,
      "SliceThickness": 4.0,
      "SmallestImagePixelValue": 0,
      "SoftwareVersions": "syngo MR B17",
      "SpacingBetweenSlices": 4.6000000238419,
      "SpecificCharacterSet": "ISO_IR 100",
      "StudyID": "1",
      "StudyTime": "092429.093000",
      "TransmitCoilName": "Body",
      "VariableFlipAngleFlag": "N",
      "WindowCenterWidthExplanation": "Algo1",
      "dBdt": 0.0},
    "slices": {}
  },
  "time": {
    "samples": {
      "AcquisitionNumber": [1, 2, 3, 4, 5, 6, 7, 8, 9, 10, 11, 12, 13, 14, 15, 16, 17, 18, 19, 20, 21, 22, 23, 24, 25, 26, 27, 28, 29, 30, 31, 32, 33, 34, 35, 36, 37, 38, 39, 40, 41, 42, 43, 44, 45, 46, 47, 48, 49, 50, 51, 52, 53, 54, 55, 56, 57, 58, 59, 60, 61, 62, 63, 64, 65, 66, 67, 68, 69, 70, 71, 72, 73, 74, 75, 76, 77, 78, 79, 80, 81, 82, 83, 84, 85, 86, 87, 88, 89, 90, 91, 92, 93, 94, 95, 96, 97, 98, 99, 100, 101, 102, 103, 104, 105, 106, 107, 108, 109, 110, 111, 112, 113, 114, 115, 116, 117, 118, 119, 120, 121, 122, 123, 124, 125, 126, 127, 128, 129, 130, 131, 132, 133, 134, 135, 136, 137, 138, 139, 140, 141, 142, 143, 144, 145, 146, 147, 148, 149, 150, 151, 152, 153, 154, 155, 156, 157, 158, 159, 160, 161, 162, 163, 164],
      "AcquisitionTime": ["094739.800000", "094741.807500", "094743.815000", "094745.822500", "094747.830000", "094749.840000", "094751.847500", "094753.855000", "094755.862500", "094757.870000", "094759.880000", "094801.887500", "094803.895000", "094805.902500", "094807.912500", "094809.920000", "094811.927500", "094813.935000", "094815.942500", "094817.952500", "094819.960000", "094821.967500", "094823.975000", "094825.982500", "094827.992500", "094830.000000", "094832.007500", "094834.015000", "094836.025000", "094838.032500", "094840.040000", "094842.047500", "094844.055000", "094846.065000", "094848.072500", "094850.080000", "094852.087500", "094854.095000", "094856.105000", "094858.112500", "094900.120000", "094902.127500", "094904.135000", "094906.145000", "094908.152500", "094910.160000", "094912.167500", "094914.177500", "094916.185000", "094918.192500", "094920.200000", "094922.207500", "094924.217500", "094926.225000", "094928.232500", "094930.240000", "094932.247500", "094934.257500", "094936.265000", "094938.272500", "094940.280000", "094942.290000", "094944.297500", "094946.305000", "094948.312500", "094950.320000", "094952.330000", "094954.337500", "094956.345000", "094958.352500", "095000.360000", "095002.370000", "095004.377500", "095006.385000", "095008.392500", "095010.402500", "095012.410000", "095014.417500", "095016.425000", "095018.432500", "095020.442500", "095022.450000", "095024.457500", "095026.465000", "095028.472500", "095030.482500", "095032.490000", "095034.497500", "095036.505000", "095038.512500", "095040.522500", "095042.530000", "095044.537500", "095046.545000", "095048.555000", "095050.562500", "095052.570000", "095054.577500", "095056.585000", "095058.595000", "095100.602500", "095102.610000", "095104.617500", "095106.625000", "095108.635000", "095110.642500", "095112.650000", "095114.657500", "095116.667500", "095118.675000", "095120.682500", "095122.690000", "095124.697500", "095126.707500", "095128.715000", "095130.722500", "095132.730000", "095134.737500", "095136.747500", "095138.755000", "095140.762500", "095142.770000", "095144.780000", "095146.787500", "095148.795000", "095150.802500", "095152.810000", "095154.820000", "095156.827500", "095158.835000", "095200.842500", "095202.850000", "095204.860000", "095206.867500", "095208.875000", "095210.882500", "095212.890000", "095214.900000", "095216.907500", "095218.915000", "095220.922500", "095222.932500", "095224.940000", "095226.947500", "095228.955000", "095230.962500", "095232.972500", "095234.980000", "095236.987500", "095238.995000", "095241.002500", "095243.012500", "095245.020000", "095247.027500", "095249.035000", "095251.045000", "095253.052500", "095255.060000", "095257.067500", "095259.075000", "095301.085000", "095303.092500", "095305.100000", "095307.107500"],
      "ContentTime": ["094824.546000", "094824.546000", "094824.546000", "094824.546000", "094824.546000", "094824.562000", "094824.562000", "094824.562000", "094824.578000", "094824.578000", "094824.578000", "094824.578000", "094824.578000", "094824.593000", "094824.593000", "094824.593000", "094824.593000", "094824.593000", "094824.593000", "094824.609000", "094824.609000", "094844.531000", "094844.546000", "094844.546000", "094844.546000", "094844.546000", "094844.546000", "094844.562000", "094844.562000", "094844.562000", "094844.562000", "094924.531000", "094924.546000", "094924.546000", "094924.546000", "094924.546000", "094924.546000", "094924.546000", "094924.546000", "094924.546000", "094924.562000", "094924.562000", "094924.562000", "094924.562000", "094924.562000", "094924.562000", "094924.562000", "094924.562000", "094924.562000", "094924.578000", "094924.578000", "095004.531000", "095004.546000", "095004.546000", "095004.546000", "095004.546000", "095004.562000", "095004.562000", "095004.562000", "095004.562000", "095004.562000", "095004.578000", "095004.578000", "095004.593000", "095004.593000", "095004.593000", "095004.593000", "095004.593000", "095004.593000", "095004.593000", "095004.609000", "095044.531000", "095044.546000", "095044.546000", "095044.546000", "095044.562000", "095044.562000", "095044.562000", "095044.562000", "095044.562000", "095044.562000", "095044.578000", "095044.578000", "095044.578000", "095044.578000", "095044.578000", "095044.578000", "095044.593000", "095044.593000", "095044.593000", "095044.593000", "095124.531000", "095124.546000", "095124.546000", "095124.546000", "095124.546000", "095124.562000", "095124.562000", "095124.562000", "095124.562000", "095124.578000", "095124.578000", "095124.578000", "095124.593000", "095124.593000", "095124.593000", "095124.593000", "095124.593000", "095124.593000", "095124.593000", "095124.593000", "095204.531000", "095204.546000", "095204.546000", "095204.546000", "095204.546000", "095204.546000", "095204.546000", "095204.546000", "095204.546000", "095204.562000", "095204.562000", "095204.562000", "095204.562000", "095204.562000", "095204.562000", "095204.562000", "095204.562000", "095204.578000", "095204.578000", "095204.578000", "095244.531000", "095244.546000", "095244.546000", "095244.546000", "095244.546000", "095244.546000", "095244.546000", "095244.546000", "095244.546000", "095244.562000", "095244.562000", "095244.562000", "095244.562000", "095244.562000", "095244.562000", "095244.562000", "095244.562000", "095244.578000", "095244.578000", "095244.578000", "095308.859000", "095308.859000", "095308.875000", "095308.875000", "095308.875000", "095308.875000", "095308.875000", "095308.890000", "095308.890000", "095308.890000", "095308.890000", "095308.890000", "095308.890000"],
      "InstanceCreationTime": ["094824.546000", "094824.546000", "094824.546000", "094824.546000", "094824.546000", "094824.562000", "094824.562000", "094824.562000", "094824.578000", "094824.578000", "094824.578000", "094824.578000", "094824.578000", "094824.593000", "094824.593000", "094824.593000", "094824.593000", "094824.593000", "094824.593000", "094824.609000", "094824.609000", "094844.531000", "094844.546000", "094844.546000", "094844.546000", "094844.546000", "094844.546000", "094844.562000", "094844.562000", "094844.562000", "094844.562000", "094924.531000", "094924.546000", "094924.546000", "094924.546000", "094924.546000", "094924.546000", "094924.546000", "094924.546000", "094924.546000", "094924.562000", "094924.562000", "094924.562000", "094924.562000", "094924.562000", "094924.562000", "094924.562000", "094924.562000", "094924.562000", "094924.578000", "094924.578000", "095004.531000", "095004.546000", "095004.546000", "095004.546000", "095004.546000", "095004.562000", "095004.562000", "095004.562000", "095004.562000", "095004.562000", "095004.578000", "095004.578000", "095004.593000", "095004.593000", "095004.593000", "095004.593000", "095004.593000", "095004.593000", "095004.593000", "095004.609000", "095044.531000", "095044.546000", "095044.546000", "095044.546000", "095044.562000", "095044.562000", "095044.562000", "095044.562000", "095044.562000", "095044.562000", "095044.578000", "095044.578000", "095044.578000", "095044.578000", "095044.578000", "095044.578000", "095044.593000", "095044.593000", "095044.593000", "095044.593000", "095124.531000", "095124.546000", "095124.546000", "095124.546000", "095124.546000", "095124.562000", "095124.562000", "095124.562000", "095124.562000", "095124.578000", "095124.578000", "095124.578000", "095124.593000", "095124.593000", "095124.593000", "095124.593000", "095124.593000", "095124.593000", "095124.593000", "095124.593000", "095204.531000", "095204.546000", "095204.546000", "095204.546000", "095204.546000", "095204.546000", "095204.546000", "095204.546000", "095204.546000", "095204.562000", "095204.562000", "095204.562000", "095204.562000", "095204.562000", "095204.562000", "095204.562000", "095204.562000", "095204.578000", "095204.578000", "095204.578000", "095244.531000", "095244.546000", "095244.546000", "095244.546000", "095244.546000", "095244.546000", "095244.546000", "095244.546000", "095244.546000", "095244.562000", "095244.562000", "095244.562000", "095244.562000", "095244.562000", "095244.562000", "095244.562000", "095244.562000", "095244.578000", "095244.578000", "095244.578000", "095308.859000", "095308.859000", "095308.875000", "095308.875000", "095308.875000", "095308.875000", "095308.875000", "095308.890000", "095308.890000", "095308.890000", "095308.890000", "095308.890000", "095308.890000"],
      "InstanceNumber": [1, 2, 3, 4, 5, 6, 7, 8, 9, 10, 11, 12, 13, 14, 15, 16, 17, 18, 19, 20, 21, 22, 23, 24, 25, 26, 27, 28, 29, 30, 31, 32, 33, 34, 35, 36, 37, 38, 39, 40, 41, 42, 43, 44, 45, 46, 47, 48, 49, 50, 51, 52, 53, 54, 55, 56, 57, 58, 59, 60, 61, 62, 63, 64, 65, 66, 67, 68, 69, 70, 71, 72, 73, 74, 75, 76, 77, 78, 79, 80, 81, 82, 83, 84, 85, 86, 87, 88, 89, 90, 91, 92, 93, 94, 95, 96, 97, 98, 99, 100, 101, 102, 103, 104, 105, 106, 107, 108, 109, 110, 111, 112, 113, 114, 115, 116, 117, 118, 119, 120, 121, 122, 123, 124, 125, 126, 127, 128, 129, 130, 131, 132, 133, 134, 135, 136, 137, 138, 139, 140, 141, 142, 143, 144, 145, 146, 147, 148, 149, 150, 151, 152, 153, 154, 155, 156, 157, 158, 159, 160, 161, 162, 163, 164],
      "LargestImagePixelValue": [1884, 1843, 1851, 1794, 1846, 1786, 1801, 1824, 1893, 1776, 1781, 1798, 1797, 1855, 1842, 1790, 1788, 1782, 1803, 1809, 1803, 1847, 1789, 1792, 1815, 1809, 1803, 1813, 1804, 1789, 1799, 1787, 1842, 1787, 1798, 1834, 1809, 1812, 1782, 1806, 1811, 1798, 1807, 1909, 1816, 1822, 1796, 1782, 1816, 1818, 1815, 1827, 1829, 1809, 1808, 1865, 1795, 1807, 1834, 1808, 1809, 1808, 1828, 1819, 1843, 1823, 1799, 1856, 1811, 1830, 1825, 1818, 1825, 1814, 1817, 1798, 1828, 1798, 1860, 1832, 1806, 1813, 1836, 1793, 1822, 1819, 1848, 1818, 1820, 1830, 1824, 1823, 1841, 1816, 1864, 1822, 1836, 1835, 1824, 1819, 1841, 1820, 1847, 1839, 1841, 1892, 1821, 1822, 1847, 1867, 1832, 1847, 1843, 1822, 1841, 1834, 1871, 1841, 1825, 1876, 1835, 1836, 1876, 1841, 1830, 1891, 1844, 1859, 1836, 1875, 1841, 1834, 1849, 1851, 1838, 1902, 1842, 1855, 1865, 1866, 1892, 1844, 1837, 1854, 1868, 1851, 1830, 1877, 1884, 1907, 1842, 1890, 1866, 1882, 1863, 1906, 1862, 1879, 1904, 1838, 1900, 1854, 1894, 1914],
      "WindowCenter": [729.0, 727.0, 727.0, 726.0, 726.0, 725.0, 724.0, 724.0, 724.0, 724.0, 724.0, 724.0, 725.0, 725.0, 725.0, 725.0, 725.0, 724.0, 724.0, 724.0, 725.0, 726.0, 725.0, 725.0, 725.0, 725.0, 726.0, 726.0, 726.0, 726.0, 726.0, 725.0, 726.0, 725.0, 725.0, 726.0, 725.0, 726.0, 725.0, 725.0, 726.0, 725.0, 724.0, 724.0, 724.0, 725.0, 725.0, 725.0, 725.0, 726.0, 726.0, 726.0, 726.0, 726.0, 726.0, 727.0, 726.0, 726.0, 727.0, 726.0, 727.0, 726.0, 725.0, 725.0, 725.0, 725.0, 725.0, 726.0, 726.0, 726.0, 725.0, 725.0, 725.0, 726.0, 726.0, 725.0, 726.0, 726.0, 727.0, 726.0, 727.0, 727.0, 727.0, 727.0, 727.0, 725.0, 726.0, 726.0, 726.0, 726.0, 726.0, 726.0, 726.0, 726.0, 727.0, 726.0, 726.0, 726.0, 726.0, 726.0, 726.0, 726.0, 726.0, 727.0, 727.0, 727.0, 727.0, 726.0, 727.0, 727.0, 727.0, 726.0, 726.0, 727.0, 727.0, 727.0, 727.0, 727.0, 727.0, 728.0, 728.0, 728.0, 728.0, 728.0, 727.0, 727.0, 727.0, 728.0, 727.0, 727.0, 727.0, 727.0, 727.0, 728.0, 727.0, 728.0, 727.0, 727.0, 727.0, 728.0, 730.0, 729.0, 728.0, 727.0, 728.0, 728.0, 728.0, 728.0, 728.0, 728.0, 727.0, 727.0, 727.0, 727.0, 727.0, 727.0, 728.0, 728.0, 727.0, 727.0, 727.0, 727.0, 728.0, 727.0],
      "WindowWidth": [1611.0, 1605.0, 1604.0, 1600.0, 1600.0, 1596.0, 1596.0, 1595.0, 1596.0, 1595.0, 1595.0, 1595.0, 1597.0, 1598.0, 1597.0, 1597.0, 1597.0, 1595.0, 1595.0, 1596.0, 1596.0, 1599.0, 1597.0, 1597.0, 1597.0, 1597.0, 1601.0, 1601.0, 1599.0, 1599.0, 1600.0, 1598.0, 1600.0, 1598.0, 1599.0, 1600.0, 1598.0, 1601.0, 1597.0, 1597.0, 1600.0, 1598.0, 1595.0, 1595.0, 1595.0, 1596.0, 1597.0, 1597.0, 1598.0, 1601.0, 1600.0, 1599.0, 1601.0, 1600.0, 1600.0, 1602.0, 1600.0, 1601.0, 1602.0, 1601.0, 1602.0, 1601.0, 1599.0, 1597.0, 1598.0, 1597.0, 1598.0, 1601.0, 1601.0, 1599.0, 1599.0, 1598.0, 1597.0, 1600.0, 1599.0, 1599.0, 1601.0, 1602.0, 1603.0, 1602.0, 1603.0, 1603.0, 1604.0, 1603.0, 1602.0, 1599.0, 1602.0, 1601.0, 1599.0, 1601.0, 1601.0, 1601.0, 1602.0, 1602.0, 1603.0, 1602.0, 1600.0, 1599.0, 1599.0, 1601.0, 1602.0, 1601.0, 1602.0, 1603.0, 1604.0, 1605.0, 1602.0, 1601.0, 1602.0, 1604.0, 1602.0, 1600.0, 1601.0, 1604.0, 1605.0, 1603.0, 1604.0, 1604.0, 1603.0, 1605.0, 1605.0, 1607.0, 1608.0, 1606.0, 1603.0, 1603.0, 1604.0, 1605.0, 1603.0, 1604.0, 1602.0, 1603.0, 1603.0, 1606.0, 1604.0, 1606.0, 1605.0, 1604.0, 1605.0, 1608.0, 1611.0, 1608.0, 1605.0, 1603.0, 1606.0, 1606.0, 1606.0, 1606.0, 1607.0, 1608.0, 1604.0, 1604.0, 1603.0, 1603.0, 1603.0, 1605.0, 1606.0, 1605.0, 1604.0, 1602.0, 1605.0, 1604.0, 1606.0, 1605.0]
    },
    "slices": {}
  }
}