{
  "AcquisitionMatrixPE": 64,
  "AcquisitionNumber": 1,
  "AcquisitionTime": "12:02:20.797500",
  "BandwidthPerPixelPhaseEncode": 33.967,
  "BaseResolution": 64,
  "CoilCombinationMethod": "Sum of Squares",
  "CoilString": "C:HEA;HEP",
  "ConversionSoftware": "dcm2niix",
  "ConversionSoftwareVersion": "v1.0.20220720",
  "DerivedVendorReportedEchoSpacing": 0.000460005,
  "DeviceSerialNumber": "35193",
  "DwellTime": 3.1e-06,
  "EchoTime": 0.03,
  "EffectiveEchoSpacing": 0.000460005,
  "FlipAngle": 90,
  "HeudiconvVersion": "1.1.6",
  "ImageOrientationPatientDICOM": [1, 0, 0, 0, 1, 0],
  "ImageOrientationText": "Tra",
  "ImageType": [
    "ORIGINAL",
    "PRIMARY",
    "M",
    "ND",
    "MOSAIC"
],
  "ImagingFrequency": 123.254,
  "InPlanePhaseEncodingDirectionDICOM": "COL",
  "InstitutionAddress": "Xinjiekouwai Street No 19,Beijing,Haidian District,CN,100875",
  "InstitutionName": "BNU MRI Center",
  "InstitutionalDepartmentName": "Department",
  "MRAcquisitionType": "2D",
  "MagneticFieldStrength": 3,
  "Manufacturer": "Siemens",
  "ManufacturersModelName": "TrioTim",
  "MatrixCoilMode": "SENSE",
  "Modality": "MR",
  "NonlinearGradientCorrection": false,
  "PartialFourier": 1,
  "PatientPosition": "HFS",
  "PercentPhaseFOV": 100,
  "PercentSampling": 100,
  "PhaseEncodingDirection": "j-",
  "PhaseEncodingSteps": 64,
  "PhaseResolution": 1,
  "PixelBandwidth": 2520,
  "ProcedureStepDescription": "BNU_cst_2015^Guo.TaoMei",
  "ProtocolName": "ge_func_3x3x4_164",
  "PulseSequenceDetails": "%SiemensSeq%\\ep2d_bold",
  "ReceiveCoilName": "HeadMatrix",
  "ReconMatrixPE": 64,
  "RepetitionTime": 2,
  "SAR": 0.120442,
  "ScanOptions": "FS",
  "ScanningSequence": "EP",
  "SequenceName": "*epfid2d1_64",
  "SequenceVariant": "SK",
  "SeriesDescription": "ge_func_3x3x4_164",
  "SeriesNumber": 5,
  "ShimSetting": [-4481, -19435, -9925, 1061, -190, -721, 86, -85],
  "SliceThickness": 4,
  "SliceTiming": [0, 1.0325, 0.06, 1.095, 0.12, 1.155, 0.1825, 1.215, 0.2425, 1.2775, 0.3025, 1.3375, 0.365, 1.3975, 0.425, 1.46, 0.485, 1.52, 0.5475, 1.58, 0.6075, 1.6425, 0.6675, 1.7025, 0.73, 1.7625, 0.79, 1.825, 0.85, 1.885, 0.9125, 1.945, 0.9725],
  "SoftwareVersions": "syngo MR B17",
  "SpacingBetweenSlices": 4.6,
  "StationName": "MRC35193",
  "TaskName": "LanguageControl",
  "TotalReadoutTime": 0.0289803,
  "TxRefAmp": 336.795,
  "dcmmeta_affine": [
    [-3.125, 0.0, 0.0, 100.0],
    [0.0, 3.125, 0.0, -76.634033203125],
    [0.0, 0.0, 4.599999904632568, -81.02169036865234],
    [0.0, 0.0, 0.0, 1.0]
],
  "dcmmeta_reorient_transform": [
    [0.0, -1.0, 0.0, 63.0],
    [1.0, 0.0, 0.0, 0.0],
    [0.0, 0.0, 1.0, 0.0],
    [0.0, 0.0, 0.0, 1.0]
],
  "dcmmeta_shape": [64, 64, 33, 164],
  "dcmmeta_slice_dim": 2,
  "dcmmeta_version": 0.6,
  "global": {
    "const": {
      "AcquisitionMatrix": [64, 0, 0, 64],
      "AngioFlag": "N",
      "BitsAllocated": 16,
      "BitsStored": 12,
      "Columns": 384,
      "EchoNumbers": 1,
      "EchoTime": 30.0,
      "EchoTrainLength": 1,
      "FlipAngle": 90.0,
      "HighBit": 11,
      "ImageOrientationPatient": [1.0, 0.0, 0.0, 0.0, 1.0, 0.0],
      "ImagePositionPatient": [-600.0, -620.24096298218, -81.021690368652],
      "ImageType": [
        "ORIGINAL",
        "PRIMARY",
        "M",
        "ND",
        "MOSAIC"
],
      "ImagedNucleus": "1H",
      "ImagingFrequency": 123.253727,
      "InPlanePhaseEncodingDirection": "COL",
      "MRAcquisitionType": "2D",
      "MagneticFieldStrength": 3.0,
      "Manufacturer": "SIEMENS",
      "ManufacturerModelName": "TrioTim",
      "Modality": "MR",
      "NumberOfAverages": 1.0,
      "NumberOfPhaseEncodingSteps": 64,
      "PercentPhaseFieldOfView": 100.0,
      "PercentSampling": 100.0,
      "PerformedProcedureStepStartTime": "113956.171000",
      "PhotometricInterpretation": "MONOCHROME2",
      "PixelBandwidth": 2520.0,
      "PixelRepresentation": 0,
      "PixelSpacing": [3.125, 3.125],
      "ProtocolName": "ge_func_3x3x4_164",
      "RepetitionTime": 2000.0,
      "Rows": 384,
      "SAR": 0.12044166724425,
      "SamplesPerPixel": 1,
      "ScanOptions": "FS",
      "ScanningSequence": "EP",
      "SequenceName": "*epfid2d1_64",
      "SequenceVariant": "SK",
      "SeriesDescription": "ge_func_3x3x4_164",
      "SeriesNumber": 5,
      "SeriesTime": "120315.187000",
      "SliceLocation": -81.021690368652,
      "SliceThickness": 4.0,
      "SmallestImagePixelValue": 0,
      "SoftwareVersions": "syngo MR B17",
      "SpacingBetweenSlices": 4.6000001430511,
      "SpecificCharacterSet": "ISO_IR 100",
      "StudyID": "1",
      "StudyTime": "113955.421000",
      "TransmitCoilName": "Body",
      "VariableFlipAngleFlag": "N",
      "WindowCenterWidthExplanation": "Algo1",
      "dBdt": 0.0},
    "slices": {}
  },
  "time": {
    "samples": {
      "AcquisitionNumber": [1, 2, 3, 4, 5, 6, 7, 8, 9, 10, 11, 12, 13, 14, 15, 16, 17, 18, 19, 20, 21, 22, 23, 24, 25, 26, 27, 28, 29, 30, 31, 32, 33, 34, 35, 36, 37, 38, 39, 40, 41, 42, 43, 44, 45, 46, 47, 48, 49, 50, 51, 52, 53, 54, 55, 56, 57, 58, 59, 60, 61, 62, 63, 64, 65, 66, 67, 68, 69, 70, 71, 72, 73, 74, 75, 76, 77, 78, 79, 80, 81, 82, 83, 84, 85, 86, 87, 88, 89, 90, 91, 92, 93, 94, 95, 96, 97, 98, 99, 100, 101, 102, 103, 104, 105, 106, 107, 108, 109, 110, 111, 112, 113, 114, 115, 116, 117, 118, 119, 120, 121, 122, 123, 124, 125, 126, 127, 128, 129, 130, 131, 132, 133, 134, 135, 136, 137, 138, 139, 140, 141, 142, 143, 144, 145, 146, 147, 148, 149, 150, 151, 152, 153, 154, 155, 156, 157, 158, 159, 160, 161, 162, 163, 164],
      "AcquisitionTime": ["120220.797500", "120222.805000", "120224.812500", "120226.820000", "120228.827500", "120230.837500", "120232.845000", "120234.852500", "120236.860000", "120238.870000", "120240.877500", "120242.885000", "120244.892500", "120246.900000", "120248.910000", "120250.917500", "120252.925000", "120254.932500", "120256.940000", "120258.950000", "120300.957500", "120302.965000", "120304.972500", "120306.982500", "120308.990000", "120310.997500", "120313.005000", "120315.012500", "120317.022500", "120319.030000", "120321.037500", "120323.045000", "120325.052500", "120327.062500", "120329.070000", "120331.077500", "120333.085000", "120335.092500", "120337.102500", "120339.110000", "120341.117500", "120343.125000", "120345.135000", "120347.142500", "120349.150000", "120351.157500", "120353.165000", "120355.175000", "120357.182500", "120359.190000", "120401.197500", "120403.205000", "120405.215000", "120407.222500", "120409.230000", "120411.237500", "120413.247500", "120415.255000", "120417.262500", "120419.270000", "120421.277500", "120423.287500", "120425.295000", "120427.302500", "120429.310000", "120431.317500", "120433.327500", "120435.335000", "120437.342500", "120439.350000", "120441.360000", "120443.367500", "120445.375000", "120447.382500", "120449.390000", "120451.400000", "120453.407500", "120455.415000", "120457.422500", "120459.430000", "120501.440000", "120503.447500", "120505.455000", "120507.462500", "120509.470000", "120511.480000", "120513.487500", "120515.495000", "120517.502500", "120519.512500", "120521.520000", "120523.527500", "120525.535000", "120527.542500", "120529.552500", "120531.560000", "120533.567500", "120535.575000", "120537.582500", "120539.592500", "120541.600000", "120543.607500", "120545.615000", "120547.625000", "120549.632500", "120551.640000", "120553.647500", "120555.655000", "120557.665000", "120559.672500", "120601.680000", "120603.687500", "120605.695000", "120607.705000", "120609.712500", "120611.720000", "120613.727500", "120615.737500", "120617.745000", "120619.752500", "120621.760000", "120623.767500", "120625.777500", "120627.785000", "120629.792500", "120631.800000", "120633.807500", "120635.817500", "120637.825000", "120639.832500", "120641.840000", "120643.847500", "120645.857500", "120647.865000", "120649.872500", "120651.880000", "120653.890000", "120655.897500", "120657.905000", "120659.912500", "120701.920000", "120703.930000", "120705.937500", "120707.945000", "120709.952500", "120711.960000", "120713.970000", "120715.977500", "120717.985000", "120719.992500", "120722.002500", "120724.010000", "120726.017500", "120728.025000", "120730.032500", "120732.042500", "120734.050000", "120736.057500", "120738.065000", "120740.072500", "120742.082500", "120744.090000", "120746.097500", "120748.105000"],
      "ContentTime": ["120315.203000", "120315.203000", "120315.203000", "120315.203000", "120315.203000", "120315.203000", "120315.218000", "120315.218000", "120315.218000", "120315.218000", "120315.218000", "120315.218000", "120315.218000", "120315.218000", "120315.234000", "120315.234000", "120315.234000", "120315.234000", "120315.234000", "120315.234000", "120315.250000", "120315.250000", "120315.250000", "120315.250000", "120315.250000", "120315.265000", "120355.187000", "120355.203000", "120355.203000", "120355.218000", "120355.218000", "120355.218000", "120355.218000", "120355.218000", "120355.234000", "120355.234000", "120355.234000", "120355.234000", "120355.234000", "120355.234000", "120355.234000", "120355.234000", "120355.250000", "120355.250000", "120355.250000", "120355.250000", "120435.187000", "120435.187000", "120435.203000", "120435.203000", "120435.203000", "120435.203000", "120435.203000", "120435.218000", "120435.218000", "120435.218000", "120435.234000", "120435.234000", "120435.234000", "120435.250000", "120435.250000", "120435.250000", "120435.250000", "120435.250000", "120435.250000", "120435.250000", "120515.187000", "120515.203000", "120515.203000", "120515.203000", "120515.203000", "120515.203000", "120515.218000", "120515.218000", "120515.218000", "120515.218000", "120515.218000", "120515.234000", "120515.234000", "120515.234000", "120515.234000", "120515.234000", "120515.234000", "120515.234000", "120515.250000", "120515.250000", "120555.187000", "120555.187000", "120555.203000", "120555.203000", "120555.203000", "120555.203000", "120555.203000", "120555.203000", "120555.218000", "120555.218000", "120555.218000", "120555.218000", "120555.218000", "120555.218000", "120555.234000", "120555.234000", "120555.234000", "120555.234000", "120555.234000", "120555.234000", "120635.187000", "120635.187000", "120635.203000", "120635.203000", "120635.203000", "120635.203000", "120635.203000", "120635.203000", "120635.203000", "120635.203000", "120635.218000", "120635.218000", "120635.218000", "120635.218000", "120635.218000", "120635.218000", "120635.234000", "120635.234000", "120635.234000", "120635.234000", "120715.187000", "120715.187000", "120715.203000", "120715.203000", "120715.203000", "120715.203000", "120715.203000", "120715.203000", "120715.203000", "120715.203000", "120715.218000", "120715.218000", "120715.218000", "120715.218000", "120715.218000", "120715.218000", "120715.218000", "120715.234000", "120715.234000", "120715.234000", "120749.375000", "120749.375000", "120749.375000", "120749.375000", "120749.390000", "120749.390000", "120749.390000", "120749.390000", "120749.406000", "120749.406000", "120749.406000", "120749.406000", "120749.406000", "120749.406000", "120749.406000", "120749.421000", "120749.421000", "120749.421000"],
      "InstanceCreationTime": ["120315.203000", "120315.203000", "120315.203000", "120315.203000", "120315.203000", "120315.203000", "120315.218000", "120315.218000", "120315.218000", "120315.218000", "120315.218000", "120315.218000", "120315.218000", "120315.218000", "120315.234000", "120315.234000", "120315.234000", "120315.234000", "120315.234000", "120315.234000", "120315.250000", "120315.250000", "120315.250000", "120315.250000", "120315.250000", "120315.265000", "120355.187000", "120355.203000", "120355.203000", "120355.218000", "120355.218000", "120355.218000", "120355.218000", "120355.218000", "120355.234000", "120355.234000", "120355.234000", "120355.234000", "120355.234000", "120355.234000", "120355.234000", "120355.234000", "120355.250000", "120355.250000", "120355.250000", "120355.250000", "120435.187000", "120435.187000", "120435.203000", "120435.203000", "120435.203000", "120435.203000", "120435.203000", "120435.218000", "120435.218000", "120435.218000", "120435.234000", "120435.234000", "120435.234000", "120435.250000", "120435.250000", "120435.250000", "120435.250000", "120435.250000", "120435.250000", "120435.250000", "120515.187000", "120515.203000", "120515.203000", "120515.203000", "120515.203000", "120515.203000", "120515.218000", "120515.218000", "120515.218000", "120515.218000", "120515.218000", "120515.234000", "120515.234000", "120515.234000", "120515.234000", "120515.234000", "120515.234000", "120515.234000", "120515.250000", "120515.250000", "120555.187000", "120555.187000", "120555.203000", "120555.203000", "120555.203000", "120555.203000", "120555.203000", "120555.203000", "120555.218000", "120555.218000", "120555.218000", "120555.218000", "120555.218000", "120555.218000", "120555.234000", "120555.234000", "120555.234000", "120555.234000", "120555.234000", "120555.234000", "120635.187000", "120635.187000", "120635.203000", "120635.203000", "120635.203000", "120635.203000", "120635.203000", "120635.203000", "120635.203000", "120635.203000", "120635.218000", "120635.218000", "120635.218000", "120635.218000", "120635.218000", "120635.218000", "120635.234000", "120635.234000", "120635.234000", "120635.234000", "120715.187000", "120715.187000", "120715.203000", "120715.203000", "120715.203000", "120715.203000", "120715.203000", "120715.203000", "120715.203000", "120715.203000", "120715.218000", "120715.218000", "120715.218000", "120715.218000", "120715.218000", "120715.218000", "120715.218000", "120715.234000", "120715.234000", "120715.234000", "120749.375000", "120749.375000", "120749.375000", "120749.375000", "120749.390000", "120749.390000", "120749.390000", "120749.390000", "120749.406000", "120749.406000", "120749.406000", "120749.406000", "120749.406000", "120749.406000", "120749.406000", "120749.421000", "120749.421000", "120749.421000"],
      "InstanceNumber": [1, 2, 3, 4, 5, 6, 7, 8, 9, 10, 11, 12, 13, 14, 15, 16, 17, 18, 19, 20, 21, 22, 23, 24, 25, 26, 27, 28, 29, 30, 31, 32, 33, 34, 35, 36, 37, 38, 39, 40, 41, 42, 43, 44, 45, 46, 47, 48, 49, 50, 51, 52, 53, 54, 55, 56, 57, 58, 59, 60, 61, 62, 63, 64, 65, 66, 67, 68, 69, 70, 71, 72, 73, 74, 75, 76, 77, 78, 79, 80, 81, 82, 83, 84, 85, 86, 87, 88, 89, 90, 91, 92, 93, 94, 95, 96, 97, 98, 99, 100, 101, 102, 103, 104, 105, 106, 107, 108, 109, 110, 111, 112, 113, 114, 115, 116, 117, 118, 119, 120, 121, 122, 123, 124, 125, 126, 127, 128, 129, 130, 131, 132, 133, 134, 135, 136, 137, 138, 139, 140, 141, 142, 143, 144, 145, 146, 147, 148, 149, 150, 151, 152, 153, 154, 155, 156, 157, 158, 159, 160, 161, 162, 163, 164],
      "LargestImagePixelValue": [1781, 1752, 1725, 1702, 1704, 1717, 1702, 1697, 1713, 1717, 1711, 1706, 1696, 1700, 1697, 1684, 1689, 1686, 1709, 1714, 1692, 1715, 1701, 1698, 1725, 1695, 1694, 1717, 1699, 1711, 1710, 1697, 1681, 1695, 1689, 1694, 1706, 1692, 1706, 1704, 1709, 1698, 1710, 1700, 1710, 1699, 1709, 1688, 1684, 1689, 1700, 1701, 1697, 1703, 1688, 1711, 1701, 1700, 1690, 1716, 1693, 1698, 1695, 1713, 1696, 1692, 1697, 1694, 1709, 1702, 1697, 1682, 1697, 1692, 1679, 1707, 1698, 1725, 1703, 1691, 1710, 1696, 1691, 1670, 1691, 1689, 1687, 1697, 1695, 1687, 1666, 1690, 1675, 1679, 1684, 1708, 1704, 1693, 1692, 1689, 1688, 1704, 1690, 1667, 1668, 1680, 1675, 1704, 1697, 1695, 1683, 1692, 1704, 1714, 1675, 1707, 1679, 1695, 1694, 1684, 1685, 1684, 1667, 1670, 1693, 1679, 1704, 1677, 1674, 1674, 1673, 1672, 1694, 1671, 1664, 1670, 1679, 1677, 1664, 1671, 1666, 1661, 1660, 1671, 1672, 1669, 1674, 1663, 1674, 1673, 1667, 1682, 1682, 1686, 1672, 1652, 1658, 1668, 1671, 1678, 1663, 1668, 1673, 1673],
      "WindowCenter": [707.0, 706.0, 706.0, 705.0, 705.0, 705.0, 705.0, 704.0, 704.0, 704.0, 704.0, 704.0, 704.0, 704.0, 704.0, 704.0, 703.0, 703.0, 703.0, 703.0, 703.0, 703.0, 703.0, 703.0, 703.0, 703.0, 703.0, 703.0, 703.0, 704.0, 704.0, 704.0, 703.0, 703.0, 703.0, 703.0, 703.0, 703.0, 704.0, 703.0, 704.0, 703.0, 704.0, 704.0, 703.0, 703.0, 703.0, 703.0, 703.0, 704.0, 703.0, 703.0, 703.0, 703.0, 704.0, 704.0, 704.0, 704.0, 705.0, 705.0, 705.0, 705.0, 706.0, 706.0, 705.0, 705.0, 705.0, 705.0, 705.0, 705.0, 706.0, 705.0, 705.0, 705.0, 705.0, 705.0, 705.0, 705.0, 705.0, 705.0, 705.0, 704.0, 705.0, 705.0, 705.0, 704.0, 705.0, 705.0, 704.0, 704.0, 704.0, 704.0, 704.0, 704.0, 704.0, 705.0, 704.0, 704.0, 704.0, 703.0, 704.0, 704.0, 705.0, 704.0, 704.0, 704.0, 704.0, 705.0, 705.0, 705.0, 705.0, 706.0, 706.0, 707.0, 706.0, 706.0, 705.0, 705.0, 705.0, 705.0, 705.0, 706.0, 706.0, 706.0, 706.0, 705.0, 705.0, 705.0, 705.0, 706.0, 706.0, 706.0, 706.0, 706.0, 706.0, 706.0, 706.0, 706.0, 705.0, 706.0, 705.0, 706.0, 706.0, 706.0, 705.0, 705.0, 705.0, 705.0, 705.0, 706.0, 706.0, 706.0, 705.0, 706.0, 705.0, 706.0, 705.0, 706.0, 706.0, 706.0, 706.0, 706.0, 706.0, 706.0],
      "WindowWidth": [1556.0, 1552.0, 1552.0, 1550.0, 1551.0, 1549.0, 1548.0, 1546.0, 1548.0, 1546.0, 1546.0, 1546.0, 1546.0, 1546.0, 1546.0, 1546.0, 1544.0, 1543.0, 1543.0, 1542.0, 1542.0, 1544.0, 1544.0, 1543.0, 1544.0, 1544.0, 1544.0, 1544.0, 1544.0, 1546.0, 1548.0, 1546.0, 1544.0, 1545.0, 1544.0, 1544.0, 1542.0, 1544.0, 1546.0, 1544.0, 1546.0, 1544.0, 1545.0, 1545.0, 1545.0, 1545.0, 1544.0, 1543.0, 1544.0, 1545.0, 1544.0, 1545.0, 1545.0, 1544.0, 1545.0, 1547.0, 1547.0, 1547.0, 1548.0, 1549.0, 1548.0, 1549.0, 1551.0, 1551.0, 1550.0, 1549.0, 1548.0, 1548.0, 1550.0, 1550.0, 1551.0, 1549.0, 1549.0, 1551.0, 1548.0, 1548.0, 1549.0, 1548.0, 1549.0, 1549.0, 1549.0, 1547.0, 1548.0, 1548.0, 1548.0, 1547.0, 1549.0, 1550.0, 1547.0, 1545.0, 1545.0, 1546.0, 1546.0, 1546.0, 1547.0, 1547.0, 1546.0, 1545.0, 1545.0, 1544.0, 1544.0, 1547.0, 1548.0, 1547.0, 1547.0, 1546.0, 1547.0, 1549.0, 1550.0, 1550.0, 1550.0, 1552.0, 1553.0, 1554.0, 1552.0, 1551.0, 1549.0, 1548.0, 1548.0, 1548.0, 1550.0, 1551.0, 1552.0, 1550.0, 1551.0, 1549.0, 1549.0, 1550.0, 1550.0, 1553.0, 1553.0, 1553.0, 1554.0, 1553.0, 1551.0, 1551.0, 1551.0, 1551.0, 1550.0, 1552.0, 1550.0, 1553.0, 1553.0, 1552.0, 1550.0, 1548.0, 1548.0, 1548.0, 1551.0, 1552.0, 1552.0, 1551.0, 1551.0, 1552.0, 1550.0, 1551.0, 1550.0, 1551.0, 1551.0, 1551.0, 1551.0, 1551.0, 1553.0, 1552.0]
    },
    "slices": {}
  }
}