{
  "AcquisitionMatrixPE": 64,
  "AcquisitionNumber": 1,
  "AcquisitionTime": "11:42:34.055000",
  "BandwidthPerPixelPhaseEncode": 33.967,
  "BaseResolution": 64,
  "CoilCombinationMethod": "Sum of Squares",
  "CoilString": "C:HEA;HEP",
  "ConversionSoftware": "dcm2niix",
  "ConversionSoftwareVersion": "v1.0.20220720",
  "DerivedVendorReportedEchoSpacing": 0.000460005,
  "DeviceSerialNumber": "35193",
  "DwellTime": 3.1e-06,
  "EchoTime": 0.03,
  "EffectiveEchoSpacing": 0.000460005,
  "FlipAngle": 90,
  "HeudiconvVersion": "1.1.6",
  "ImageOrientationPatientDICOM": [1, 0, 0, 0, 1, 0],
  "ImageOrientationText": "Tra",
  "ImageType": [
    "ORIGINAL",
    "PRIMARY",
    "M",
    "ND",
    "MOSAIC"
],
  "ImagingFrequency": 123.254,
  "InPlanePhaseEncodingDirectionDICOM": "COL",
  "InstitutionAddress": "Xinjiekouwai Street No 19,Beijing,Haidian District,CN,100875",
  "InstitutionName": "BNU MRI Center",
  "InstitutionalDepartmentName": "Department",
  "MRAcquisitionType": "2D",
  "MagneticFieldStrength": 3,
  "Manufacturer": "Siemens",
  "ManufacturersModelName": "TrioTim",
  "MatrixCoilMode": "SENSE",
  "Modality": "MR",
  "NonlinearGradientCorrection": false,
  "PartialFourier": 1,
  "PatientPosition": "HFS",
  "PercentPhaseFOV": 100,
  "PercentSampling": 100,
  "PhaseEncodingDirection": "j-",
  "PhaseEncodingSteps": 64,
  "PhaseResolution": 1,
  "PixelBandwidth": 2520,
  "ProcedureStepDescription": "BNU_cst_2015^Guo.TaoMei",
  "ProtocolName": "ge_func_3x3x4_164",
  "PulseSequenceDetails": "%SiemensSeq%\\ep2d_bold",
  "ReceiveCoilName": "HeadMatrix",
  "ReconMatrixPE": 64,
  "RepetitionTime": 2,
  "SAR": 0.120442,
  "ScanOptions": "FS",
  "ScanningSequence": "EP",
  "SequenceName": "*epfid2d1_64",
  "SequenceVariant": "SK",
  "SeriesDescription": "ge_func_3x3x4_164",
  "SeriesNumber": 2,
  "ShimSetting": [-4481, -19435, -9925, 1061, -190, -721, 86, -85],
  "SliceThickness": 4,
  "SliceTiming": [0, 1.0325, 0.06, 1.095, 0.12, 1.155, 0.1825, 1.215, 0.2425, 1.2775, 0.3025, 1.3375, 0.365, 1.3975, 0.425, 1.46, 0.485, 1.52, 0.5475, 1.58, 0.6075, 1.6425, 0.6675, 1.7025, 0.73, 1.7625, 0.79, 1.825, 0.85, 1.885, 0.9125, 1.945, 0.9725],
  "SoftwareVersions": "syngo MR B17",
  "SpacingBetweenSlices": 4.6,
  "StationName": "MRC35193",
  "TaskName": "CognitiveControl",
  "TotalReadoutTime": 0.0289803,
  "TxRefAmp": 336.795,
  "dcmmeta_affine": [
    [-3.125, 0.0, 0.0, 100.0],
    [0.0, 3.125, 0.0, -76.634033203125],
    [0.0, 0.0, 4.599999904632568, -81.02169036865234],
    [0.0, 0.0, 0.0, 1.0]
],
  "dcmmeta_reorient_transform": [
    [0.0, -1.0, 0.0, 63.0],
    [1.0, 0.0, 0.0, 0.0],
    [0.0, 0.0, 1.0, 0.0],
    [0.0, 0.0, 0.0, 1.0]
],
  "dcmmeta_shape": [64, 64, 33, 164],
  "dcmmeta_slice_dim": 2,
  "dcmmeta_version": 0.6,
  "global": {
    "const": {
      "AcquisitionMatrix": [64, 0, 0, 64],
      "AngioFlag": "N",
      "BitsAllocated": 16,
      "BitsStored": 12,
      "Columns": 384,
      "EchoNumbers": 1,
      "EchoTime": 30.0,
      "EchoTrainLength": 1,
      "FlipAngle": 90.0,
      "HighBit": 11,
      "ImageOrientationPatient": [1.0, 0.0, 0.0, 0.0, 1.0, 0.0],
      "ImagePositionPatient": [-600.0, -620.24096298218, -81.021690368652],
      "ImageType": [
        "ORIGINAL",
        "PRIMARY",
        "M",
        "ND",
        "MOSAIC"
],
      "ImagedNucleus": "1H",
      "ImagingFrequency": 123.253723,
      "InPlanePhaseEncodingDirection": "COL",
      "MRAcquisitionType": "2D",
      "MagneticFieldStrength": 3.0,
      "Manufacturer": "SIEMENS",
      "ManufacturerModelName": "TrioTim",
      "Modality": "MR",
      "NumberOfAverages": 1.0,
      "NumberOfPhaseEncodingSteps": 64,
      "PercentPhaseFieldOfView": 100.0,
      "PercentSampling": 100.0,
      "PerformedProcedureStepStartTime": "113956.171000",
      "PhotometricInterpretation": "MONOCHROME2",
      "PixelBandwidth": 2520.0,
      "PixelRepresentation": 0,
      "PixelSpacing": [3.125, 3.125],
      "ProtocolName": "ge_func_3x3x4_164",
      "RepetitionTime": 2000.0,
      "Rows": 384,
      "SAR": 0.12044166724425,
      "SamplesPerPixel": 1,
      "ScanOptions": "FS",
      "ScanningSequence": "EP",
      "SequenceName": "*epfid2d1_64",
      "SequenceVariant": "SK",
      "SeriesDescription": "ge_func_3x3x4_164",
      "SeriesNumber": 2,
      "SeriesTime": "114315.187000",
      "SliceLocation": -81.021690368652,
      "SliceThickness": 4.0,
      "SmallestImagePixelValue": 0,
      "SoftwareVersions": "syngo MR B17",
      "SpacingBetweenSlices": 4.6000001430511,
      "SpecificCharacterSet": "ISO_IR 100",
      "StudyID": "1",
      "StudyTime": "113955.421000",
      "TransmitCoilName": "Body",
      "VariableFlipAngleFlag": "N",
      "WindowCenterWidthExplanation": "Algo1",
      "dBdt": 0.0},
    "slices": {}
  },
  "time": {
    "samples": {
      "AcquisitionNumber": [1, 2, 3, 4, 5, 6, 7, 8, 9, 10, 11, 12, 13, 14, 15, 16, 17, 18, 19, 20, 21, 22, 23, 24, 25, 26, 27, 28, 29, 30, 31, 32, 33, 34, 35, 36, 37, 38, 39, 40, 41, 42, 43, 44, 45, 46, 47, 48, 49, 50, 51, 52, 53, 54, 55, 56, 57, 58, 59, 60, 61, 62, 63, 64, 65, 66, 67, 68, 69, 70, 71, 72, 73, 74, 75, 76, 77, 78, 79, 80, 81, 82, 83, 84, 85, 86, 87, 88, 89, 90, 91, 92, 93, 94, 95, 96, 97, 98, 99, 100, 101, 102, 103, 104, 105, 106, 107, 108, 109, 110, 111, 112, 113, 114, 115, 116, 117, 118, 119, 120, 121, 122, 123, 124, 125, 126, 127, 128, 129, 130, 131, 132, 133, 134, 135, 136, 137, 138, 139, 140, 141, 142, 143, 144, 145, 146, 147, 148, 149, 150, 151, 152, 153, 154, 155, 156, 157, 158, 159, 160, 161, 162, 163, 164],
      "AcquisitionTime": ["114234.055000", "114236.062500", "114238.070000", "114240.077500", "114242.087500", "114244.095000", "114246.102500", "114248.110000", "114250.117500", "114252.127500", "114254.135000", "114256.142500", "114258.150000", "114300.160000", "114302.167500", "114304.175000", "114306.182500", "114308.190000", "114310.200000", "114312.207500", "114314.215000", "114316.222500", "114318.230000", "114320.240000", "114322.247500", "114324.255000", "114326.262500", "114328.272500", "114330.280000", "114332.287500", "114334.295000", "114336.302500", "114338.312500", "114340.320000", "114342.327500", "114344.335000", "114346.342500", "114348.352500", "114350.360000", "114352.367500", "114354.375000", "114356.382500", "114358.392500", "114400.400000", "114402.407500", "114404.415000", "114406.425000", "114408.432500", "114410.440000", "114412.447500", "114414.455000", "114416.465000", "114418.472500", "114420.480000", "114422.487500", "114424.495000", "114426.505000", "114428.512500", "114430.520000", "114432.527500", "114434.537500", "114436.545000", "114438.552500", "114440.560000", "114442.567500", "114444.577500", "114446.585000", "114448.592500", "114450.600000", "114452.607500", "114454.617500", "114456.625000", "114458.632500", "114500.640000", "114502.650000", "114504.657500", "114506.665000", "114508.672500", "114510.680000", "114512.690000", "114514.697500", "114516.705000", "114518.712500", "114520.720000", "114522.730000", "114524.737500", "114526.745000", "114528.752500", "114530.760000", "114532.770000", "114534.777500", "114536.785000", "114538.792500", "114540.802500", "114542.810000", "114544.817500", "114546.825000", "114548.832500", "114550.842500", "114552.850000", "114554.857500", "114556.865000", "114558.872500", "114600.882500", "114602.890000", "114604.897500", "114606.905000", "114608.915000", "114610.922500", "114612.930000", "114614.937500", "114616.945000", "114618.955000", "114620.962500", "114622.970000", "114624.977500", "114626.985000", "114628.995000", "114631.002500", "114633.010000", "114635.017500", "114637.027500", "114639.035000", "114641.042500", "114643.050000", "114645.057500", "114647.067500", "114649.075000", "114651.082500", "114653.090000", "114655.097500", "114657.107500", "114659.115000", "114701.122500", "114703.130000", "114705.140000", "114707.147500", "114709.155000", "114711.162500", "114713.170000", "114715.180000", "114717.187500", "114719.195000", "114721.202500", "114723.210000", "114725.220000", "114727.227500", "114729.235000", "114731.242500", "114733.250000", "114735.260000", "114737.267500", "114739.275000", "114741.282500", "114743.292500", "114745.300000", "114747.307500", "114749.315000", "114751.322500", "114753.332500", "114755.340000", "114757.347500", "114759.355000", "114801.362500"],
      "ContentTime": ["114315.203000", "114315.203000", "114315.203000", "114315.218000", "114315.218000", "114315.218000", "114315.218000", "114315.218000", "114315.218000", "114315.234000", "114315.234000", "114315.234000", "114315.234000", "114315.234000", "114315.234000", "114315.234000", "114315.234000", "114315.250000", "114315.250000", "114315.250000", "114355.187000", "114355.187000", "114355.203000", "114355.203000", "114355.203000", "114355.203000", "114355.203000", "114355.203000", "114355.203000", "114355.218000", "114355.218000", "114355.218000", "114355.218000", "114355.218000", "114355.218000", "114355.218000", "114355.218000", "114355.234000", "114355.234000", "114355.234000", "114435.187000", "114435.203000", "114435.203000", "114435.203000", "114435.203000", "114435.203000", "114435.203000", "114435.203000", "114435.203000", "114435.218000", "114435.218000", "114435.218000", "114435.218000", "114435.218000", "114435.234000", "114435.234000", "114435.234000", "114435.234000", "114435.234000", "114435.234000", "114515.187000", "114515.187000", "114515.203000", "114515.203000", "114515.203000", "114515.203000", "114515.218000", "114515.218000", "114515.218000", "114515.218000", "114515.218000", "114515.234000", "114515.234000", "114515.234000", "114515.234000", "114515.234000", "114515.250000", "114515.250000", "114515.250000", "114515.250000", "114555.187000", "114555.187000", "114555.203000", "114555.203000", "114555.203000", "114555.203000", "114555.218000", "114555.218000", "114555.218000", "114555.218000", "114555.218000", "114555.234000", "114555.234000", "114555.234000", "114555.234000", "114555.234000", "114555.250000", "114555.250000", "114555.250000", "114555.250000", "114635.187000", "114635.203000", "114635.203000", "114635.203000", "114635.203000", "114635.203000", "114635.203000", "114635.203000", "114635.203000", "114635.218000", "114635.218000", "114635.218000", "114635.218000", "114635.218000", "114635.218000", "114635.218000", "114635.218000", "114635.218000", "114635.234000", "114635.234000", "114715.187000", "114715.187000", "114715.203000", "114715.203000", "114715.203000", "114715.203000", "114715.203000", "114715.218000", "114715.218000", "114715.218000", "114715.218000", "114715.218000", "114715.234000", "114715.234000", "114715.234000", "114715.234000", "114715.234000", "114715.234000", "114715.234000", "114715.234000", "114755.187000", "114755.187000", "114755.203000", "114755.203000", "114755.203000", "114755.203000", "114755.203000", "114755.203000", "114755.203000", "114755.203000", "114755.218000", "114755.218000", "114755.218000", "114755.218000", "114755.218000", "114755.218000", "114755.218000", "114755.218000", "114755.234000", "114755.234000", "114802.546000", "114802.546000", "114802.546000", "114802.546000"],
      "InstanceCreationTime": ["114315.203000", "114315.203000", "114315.203000", "114315.218000", "114315.218000", "114315.218000", "114315.218000", "114315.218000", "114315.218000", "114315.234000", "114315.234000", "114315.234000", "114315.234000", "114315.234000", "114315.234000", "114315.234000", "114315.234000", "114315.250000", "114315.250000", "114315.250000", "114355.187000", "114355.187000", "114355.203000", "114355.203000", "114355.203000", "114355.203000", "114355.203000", "114355.203000", "114355.203000", "114355.218000", "114355.218000", "114355.218000", "114355.218000", "114355.218000", "114355.218000", "114355.218000", "114355.218000", "114355.234000", "114355.234000", "114355.234000", "114435.187000", "114435.203000", "114435.203000", "114435.203000", "114435.203000", "114435.203000", "114435.203000", "114435.203000", "114435.203000", "114435.218000", "114435.218000", "114435.218000", "114435.218000", "114435.218000", "114435.234000", "114435.234000", "114435.234000", "114435.234000", "114435.234000", "114435.234000", "114515.187000", "114515.187000", "114515.203000", "114515.203000", "114515.203000", "114515.203000", "114515.218000", "114515.218000", "114515.218000", "114515.218000", "114515.218000", "114515.234000", "114515.234000", "114515.234000", "114515.234000", "114515.234000", "114515.250000", "114515.250000", "114515.250000", "114515.250000", "114555.187000", "114555.187000", "114555.203000", "114555.203000", "114555.203000", "114555.203000", "114555.218000", "114555.218000", "114555.218000", "114555.218000", "114555.218000", "114555.234000", "114555.234000", "114555.234000", "114555.234000", "114555.234000", "114555.250000", "114555.250000", "114555.250000", "114555.250000", "114635.187000", "114635.203000", "114635.203000", "114635.203000", "114635.203000", "114635.203000", "114635.203000", "114635.203000", "114635.203000", "114635.218000", "114635.218000", "114635.218000", "114635.218000", "114635.218000", "114635.218000", "114635.218000", "114635.218000", "114635.218000", "114635.234000", "114635.234000", "114715.187000", "114715.187000", "114715.203000", "114715.203000", "114715.203000", "114715.203000", "114715.203000", "114715.218000", "114715.218000", "114715.218000", "114715.218000", "114715.218000", "114715.234000", "114715.234000", "114715.234000", "114715.234000", "114715.234000", "114715.234000", "114715.234000", "114715.234000", "114755.187000", "114755.187000", "114755.203000", "114755.203000", "114755.203000", "114755.203000", "114755.203000", "114755.203000", "114755.203000", "114755.203000", "114755.218000", "114755.218000", "114755.218000", "114755.218000", "114755.218000", "114755.218000", "114755.218000", "114755.218000", "114755.234000", "114755.234000", "114802.546000", "114802.546000", "114802.546000", "114802.546000"],
      "InstanceNumber": [1, 2, 3, 4, 5, 6, 7, 8, 9, 10, 11, 12, 13, 14, 15, 16, 17, 18, 19, 20, 21, 22, 23, 24, 25, 26, 27, 28, 29, 30, 31, 32, 33, 34, 35, 36, 37, 38, 39, 40, 41, 42, 43, 44, 45, 46, 47, 48, 49, 50, 51, 52, 53, 54, 55, 56, 57, 58, 59, 60, 61, 62, 63, 64, 65, 66, 67, 68, 69, 70, 71, 72, 73, 74, 75, 76, 77, 78, 79, 80, 81, 82, 83, 84, 85, 86, 87, 88, 89, 90, 91, 92, 93, 94, 95, 96, 97, 98, 99, 100, 101, 102, 103, 104, 105, 106, 107, 108, 109, 110, 111, 112, 113, 114, 115, 116, 117, 118, 119, 120, 121, 122, 123, 124, 125, 126, 127, 128, 129, 130, 131, 132, 133, 134, 135, 136, 137, 138, 139, 140, 141, 142, 143, 144, 145, 146, 147, 148, 149, 150, 151, 152, 153, 154, 155, 156, 157, 158, 159, 160, 161, 162, 163, 164],
      "LargestImagePixelValue": [1729, 1689, 1669, 1666, 1674, 1666, 1668, 1682, 1680, 1659, 1666, 1656, 1662, 1675, 1673, 1677, 1669, 1649, 1675, 1673, 1674, 1667, 1665, 1678, 1676, 1674, 1659, 1675, 1671, 1676, 1671, 1660, 1675, 1683, 1692, 1678, 1681, 1675, 1690, 1680, 1678, 1673, 1669, 1683, 1687, 1690, 1695, 1681, 1679, 1682, 1680, 1692, 1687, 1704, 1687, 1693, 1681, 1679, 1686, 1699, 1708, 1701, 1706, 1691, 1690, 1703, 1710, 1680, 1705, 1706, 1703, 1711, 1683, 1699, 1680, 1682, 1675, 1678, 1679, 1681, 1678, 1692, 1676, 1692, 1677, 1680, 1691, 1700, 1704, 1691, 1694, 1693, 1682, 1695, 1685, 1676, 1679, 1670, 1682, 1675, 1659, 1650, 1655, 1691, 1691, 1679, 1687, 1673, 1687, 1687, 1683, 1678, 1683, 1680, 1679, 1690, 1665, 1669, 1680, 1656, 1676, 1681, 1687, 1684, 1680, 1663, 1679, 1692, 1665, 1675, 1672, 1679, 1670, 1687, 1689, 1678, 1695, 1683, 1685, 1685, 1675, 1681, 1680, 1684, 1687, 1661, 1667, 1662, 1670, 1669, 1672, 1680, 1681, 1684, 1663, 1659, 1679, 1692, 1671, 1688, 1688, 1671, 1686, 1678],
      "WindowCenter": [702.0, 701.0, 701.0, 701.0, 700.0, 699.0, 699.0, 699.0, 699.0, 699.0, 699.0, 700.0, 700.0, 700.0, 700.0, 700.0, 700.0, 699.0, 700.0, 700.0, 700.0, 700.0, 700.0, 700.0, 700.0, 700.0, 700.0, 700.0, 700.0, 700.0, 700.0, 700.0, 700.0, 700.0, 700.0, 700.0, 700.0, 700.0, 701.0, 701.0, 700.0, 700.0, 700.0, 700.0, 700.0, 700.0, 700.0, 700.0, 701.0, 701.0, 701.0, 701.0, 701.0, 701.0, 701.0, 701.0, 701.0, 700.0, 700.0, 700.0, 701.0, 702.0, 701.0, 701.0, 701.0, 701.0, 701.0, 700.0, 701.0, 701.0, 701.0, 701.0, 701.0, 701.0, 701.0, 701.0, 701.0, 701.0, 701.0, 701.0, 702.0, 702.0, 702.0, 702.0, 702.0, 701.0, 701.0, 701.0, 701.0, 701.0, 701.0, 702.0, 701.0, 701.0, 701.0, 701.0, 701.0, 701.0, 701.0, 702.0, 702.0, 702.0, 702.0, 702.0, 702.0, 702.0, 702.0, 702.0, 702.0, 702.0, 702.0, 702.0, 701.0, 702.0, 702.0, 703.0, 702.0, 702.0, 702.0, 702.0, 702.0, 703.0, 702.0, 702.0, 702.0, 702.0, 702.0, 702.0, 702.0, 702.0, 702.0, 702.0, 702.0, 702.0, 702.0, 702.0, 703.0, 703.0, 703.0, 702.0, 702.0, 702.0, 702.0, 702.0, 702.0, 701.0, 702.0, 702.0, 702.0, 701.0, 701.0, 701.0, 702.0, 702.0, 702.0, 702.0, 702.0, 702.0, 702.0, 702.0, 702.0, 702.0, 702.0, 702.0],
      "WindowWidth": [1542.0, 1538.0, 1539.0, 1536.0, 1534.0, 1532.0, 1532.0, 1532.0, 1533.0, 1532.0, 1532.0, 1534.0, 1534.0, 1534.0, 1534.0, 1533.0, 1533.0, 1532.0, 1534.0, 1535.0, 1535.0, 1535.0, 1535.0, 1536.0, 1534.0, 1534.0, 1534.0, 1534.0, 1534.0, 1534.0, 1535.0, 1535.0, 1534.0, 1534.0, 1535.0, 1536.0, 1535.0, 1536.0, 1537.0, 1537.0, 1536.0, 1535.0, 1534.0, 1535.0, 1535.0, 1535.0, 1535.0, 1535.0, 1537.0, 1537.0, 1537.0, 1538.0, 1537.0, 1537.0, 1537.0, 1538.0, 1536.0, 1535.0, 1534.0, 1535.0, 1538.0, 1540.0, 1538.0, 1537.0, 1538.0, 1537.0, 1537.0, 1536.0, 1537.0, 1537.0, 1538.0, 1538.0, 1538.0, 1538.0, 1538.0, 1538.0, 1538.0, 1539.0, 1538.0, 1538.0, 1539.0, 1540.0, 1539.0, 1540.0, 1539.0, 1537.0, 1536.0, 1537.0, 1538.0, 1539.0, 1539.0, 1539.0, 1537.0, 1537.0, 1537.0, 1538.0, 1537.0, 1537.0, 1538.0, 1540.0, 1540.0, 1540.0, 1540.0, 1541.0, 1542.0, 1541.0, 1541.0, 1541.0, 1541.0, 1540.0, 1539.0, 1539.0, 1539.0, 1540.0, 1541.0, 1542.0, 1541.0, 1540.0, 1541.0, 1540.0, 1540.0, 1543.0, 1542.0, 1541.0, 1541.0, 1540.0, 1541.0, 1542.0, 1540.0, 1539.0, 1539.0, 1541.0, 1540.0, 1541.0, 1541.0, 1542.0, 1542.0, 1543.0, 1543.0, 1541.0, 1539.0, 1540.0, 1541.0, 1540.0, 1540.0, 1538.0, 1539.0, 1539.0, 1540.0, 1538.0, 1538.0, 1539.0, 1540.0, 1541.0, 1539.0, 1539.0, 1539.0, 1540.0, 1539.0, 1539.0, 1539.0, 1539.0, 1541.0, 1541.0]
    },
    "slices": {}
  }
}