{
  "AcquisitionMatrixPE": 64,
  "AcquisitionNumber": 1,
  "AcquisitionTime": "11:48:53.875000",
  "BandwidthPerPixelPhaseEncode": 33.967,
  "BaseResolution": 64,
  "CoilCombinationMethod": "Sum of Squares",
  "CoilString": "C:HEA;HEP",
  "ConversionSoftware": "dcm2niix",
  "ConversionSoftwareVersion": "v1.0.20220720",
  "DerivedVendorReportedEchoSpacing": 0.000460005,
  "DeviceSerialNumber": "35193",
  "DwellTime": 3.1e-06,
  "EchoTime": 0.03,
  "EffectiveEchoSpacing": 0.000460005,
  "FlipAngle": 90,
  "HeudiconvVersion": "1.1.6",
  "ImageOrientationPatientDICOM": [1, 0, 0, 0, 1, 0],
  "ImageOrientationText": "Tra",
  "ImageType": [
    "ORIGINAL",
    "PRIMARY",
    "M",
    "ND",
    "MOSAIC"
],
  "ImagingFrequency": 123.254,
  "InPlanePhaseEncodingDirectionDICOM": "COL",
  "InstitutionAddress": "Xinjiekouwai Street No 19,Beijing,Haidian District,CN,100875",
  "InstitutionName": "BNU MRI Center",
  "InstitutionalDepartmentName": "Department",
  "MRAcquisitionType": "2D",
  "MagneticFieldStrength": 3,
  "Manufacturer": "Siemens",
  "ManufacturersModelName": "TrioTim",
  "MatrixCoilMode": "SENSE",
  "Modality": "MR",
  "NonlinearGradientCorrection": false,
  "PartialFourier": 1,
  "PatientPosition": "HFS",
  "PercentPhaseFOV": 100,
  "PercentSampling": 100,
  "PhaseEncodingDirection": "j-",
  "PhaseEncodingSteps": 64,
  "PhaseResolution": 1,
  "PixelBandwidth": 2520,
  "ProcedureStepDescription": "BNU_cst_2015^Guo.TaoMei",
  "ProtocolName": "ge_func_3x3x4_164",
  "PulseSequenceDetails": "%SiemensSeq%\\ep2d_bold",
  "ReceiveCoilName": "HeadMatrix",
  "ReconMatrixPE": 64,
  "RepetitionTime": 2,
  "SAR": 0.120442,
  "ScanOptions": "FS",
  "ScanningSequence": "EP",
  "SequenceName": "*epfid2d1_64",
  "SequenceVariant": "SK",
  "SeriesDescription": "ge_func_3x3x4_164",
  "SeriesNumber": 3,
  "ShimSetting": [-4481, -19435, -9925, 1061, -190, -721, 86, -85],
  "SliceThickness": 4,
  "SliceTiming": [0, 1.035, 0.06, 1.095, 0.1225, 1.155, 0.1825, 1.2175, 0.2425, 1.2775, 0.305, 1.3375, 0.365, 1.4, 0.425, 1.46, 0.4875, 1.52, 0.5475, 1.5825, 0.6075, 1.6425, 0.67, 1.7025, 0.73, 1.765, 0.79, 1.825, 0.8525, 1.885, 0.9125, 1.9475, 0.9725],
  "SoftwareVersions": "syngo MR B17",
  "SpacingBetweenSlices": 4.6,
  "StationName": "MRC35193",
  "TaskName": "CognitiveControl",
  "TotalReadoutTime": 0.0289803,
  "TxRefAmp": 336.795,
  "dcmmeta_affine": [
    [-3.125, 0.0, 0.0, 100.0],
    [0.0, 3.125, 0.0, -76.634033203125],
    [0.0, 0.0, 4.599999904632568, -81.02169036865234],
    [0.0, 0.0, 0.0, 1.0]
],
  "dcmmeta_reorient_transform": [
    [0.0, -1.0, 0.0, 63.0],
    [1.0, 0.0, 0.0, 0.0],
    [0.0, 0.0, 1.0, 0.0],
    [0.0, 0.0, 0.0, 1.0]
],
  "dcmmeta_shape": [64, 64, 33, 164],
  "dcmmeta_slice_dim": 2,
  "dcmmeta_version": 0.6,
  "global": {
    "const": {
      "AcquisitionMatrix": [64, 0, 0, 64],
      "AngioFlag": "N",
      "BitsAllocated": 16,
      "BitsStored": 12,
      "Columns": 384,
      "EchoNumbers": 1,
      "EchoTime": 30.0,
      "EchoTrainLength": 1,
      "FlipAngle": 90.0,
      "HighBit": 11,
      "ImageOrientationPatient": [1.0, 0.0, 0.0, 0.0, 1.0, 0.0],
      "ImagePositionPatient": [-600.0, -620.24096298218, -81.021690368652],
      "ImageType": [
        "ORIGINAL",
        "PRIMARY",
        "M",
        "ND",
        "MOSAIC"
],
      "ImagedNucleus": "1H",
      "ImagingFrequency": 123.253723,
      "InPlanePhaseEncodingDirection": "COL",
      "MRAcquisitionType": "2D",
      "MagneticFieldStrength": 3.0,
      "Manufacturer": "SIEMENS",
      "ManufacturerModelName": "TrioTim",
      "Modality": "MR",
      "NumberOfAverages": 1.0,
      "NumberOfPhaseEncodingSteps": 64,
      "PercentPhaseFieldOfView": 100.0,
      "PercentSampling": 100.0,
      "PerformedProcedureStepStartTime": "113956.171000",
      "PhotometricInterpretation": "MONOCHROME2",
      "PixelBandwidth": 2520.0,
      "PixelRepresentation": 0,
      "PixelSpacing": [3.125, 3.125],
      "ProtocolName": "ge_func_3x3x4_164",
      "RepetitionTime": 2000.0,
      "Rows": 384,
      "SAR": 0.12044166724425,
      "SamplesPerPixel": 1,
      "ScanOptions": "FS",
      "ScanningSequence": "EP",
      "SequenceName": "*epfid2d1_64",
      "SequenceVariant": "SK",
      "SeriesDescription": "ge_func_3x3x4_164",
      "SeriesNumber": 3,
      "SeriesTime": "114947.687000",
      "SliceLocation": -81.021690368652,
      "SliceThickness": 4.0,
      "SmallestImagePixelValue": 0,
      "SoftwareVersions": "syngo MR B17",
      "SpacingBetweenSlices": 4.6000001430511,
      "SpecificCharacterSet": "ISO_IR 100",
      "StudyID": "1",
      "StudyTime": "113955.421000",
      "TransmitCoilName": "Body",
      "VariableFlipAngleFlag": "N",
      "WindowCenterWidthExplanation": "Algo1",
      "dBdt": 0.0},
    "slices": {}
  },
  "time": {
    "samples": {
      "AcquisitionNumber": [1, 2, 3, 4, 5, 6, 7, 8, 9, 10, 11, 12, 13, 14, 15, 16, 17, 18, 19, 20, 21, 22, 23, 24, 25, 26, 27, 28, 29, 30, 31, 32, 33, 34, 35, 36, 37, 38, 39, 40, 41, 42, 43, 44, 45, 46, 47, 48, 49, 50, 51, 52, 53, 54, 55, 56, 57, 58, 59, 60, 61, 62, 63, 64, 65, 66, 67, 68, 69, 70, 71, 72, 73, 74, 75, 76, 77, 78, 79, 80, 81, 82, 83, 84, 85, 86, 87, 88, 89, 90, 91, 92, 93, 94, 95, 96, 97, 98, 99, 100, 101, 102, 103, 104, 105, 106, 107, 108, 109, 110, 111, 112, 113, 114, 115, 116, 117, 118, 119, 120, 121, 122, 123, 124, 125, 126, 127, 128, 129, 130, 131, 132, 133, 134, 135, 136, 137, 138, 139, 140, 141, 142, 143, 144, 145, 146, 147, 148, 149, 150, 151, 152, 153, 154, 155, 156, 157, 158, 159, 160, 161, 162, 163, 164],
      "AcquisitionTime": ["114853.875000", "114855.882500", "114857.892500", "114859.900000", "114901.907500", "114903.915000", "114905.922500", "114907.932500", "114909.940000", "114911.947500", "114913.955000", "114915.962500", "114917.972500", "114919.980000", "114921.987500", "114923.995000", "114926.005000", "114928.012500", "114930.020000", "114932.027500", "114934.035000", "114936.045000", "114938.052500", "114940.060000", "114942.067500", "114944.075000", "114946.085000", "114948.092500", "114950.100000", "114952.107500", "114954.115000", "114956.125000", "114958.132500", "115000.140000", "115002.147500", "115004.157500", "115006.165000", "115008.172500", "115010.180000", "115012.187500", "115014.197500", "115016.205000", "115018.212500", "115020.220000", "115022.227500", "115024.237500", "115026.245000", "115028.252500", "115030.260000", "115032.270000", "115034.277500", "115036.285000", "115038.292500", "115040.300000", "115042.310000", "115044.317500", "115046.325000", "115048.332500", "115050.340000", "115052.350000", "115054.357500", "115056.365000", "115058.372500", "115100.382500", "115102.390000", "115104.397500", "115106.405000", "115108.412500", "115110.422500", "115112.430000", "115114.437500", "115116.445000", "115118.452500", "115120.462500", "115122.470000", "115124.477500", "115126.485000", "115128.495000", "115130.502500", "115132.510000", "115134.517500", "115136.525000", "115138.535000", "115140.542500", "115142.550000", "115144.557500", "115146.565000", "115148.575000", "115150.582500", "115152.590000", "115154.597500", "115156.605000", "115158.615000", "115200.622500", "115202.630000", "115204.637500", "115206.647500", "115208.655000", "115210.662500", "115212.670000", "115214.677500", "115216.687500", "115218.695000", "115220.702500", "115222.710000", "115224.717500", "115226.727500", "115228.735000", "115230.742500", "115232.750000", "115234.760000", "115236.767500", "115238.775000", "115240.782500", "115242.790000", "115244.800000", "115246.807500", "115248.815000", "115250.822500", "115252.830000", "115254.840000", "115256.847500", "115258.855000", "115300.862500", "115302.872500", "115304.880000", "115306.887500", "115308.895000", "115310.902500", "115312.912500", "115314.920000", "115316.927500", "115318.935000", "115320.942500", "115322.952500", "115324.960000", "115326.967500", "115328.975000", "115330.982500", "115332.992500", "115335.000000", "115337.007500", "115339.015000", "115341.025000", "115343.032500", "115345.040000", "115347.047500", "115349.055000", "115351.065000", "115353.072500", "115355.080000", "115357.087500", "115359.095000", "115401.105000", "115403.112500", "115405.120000", "115407.127500", "115409.137500", "115411.145000", "115413.152500", "115415.160000", "115417.167500", "115419.177500", "115421.185000"],
      "ContentTime": ["114947.703000", "114947.703000", "114947.703000", "114947.703000", "114947.703000", "114947.703000", "114947.718000", "114947.718000", "114947.718000", "114947.718000", "114947.718000", "114947.718000", "114947.718000", "114947.734000", "114947.734000", "114947.734000", "114947.734000", "114947.734000", "114947.734000", "114947.750000", "114947.750000", "114947.750000", "114947.750000", "114947.750000", "114947.750000", "114947.750000", "115027.687000", "115027.687000", "115027.703000", "115027.703000", "115027.703000", "115027.703000", "115027.703000", "115027.718000", "115027.718000", "115027.718000", "115027.718000", "115027.718000", "115027.718000", "115027.734000", "115027.734000", "115027.734000", "115027.734000", "115027.734000", "115027.734000", "115027.734000", "115107.687000", "115107.687000", "115107.703000", "115107.703000", "115107.703000", "115107.703000", "115107.703000", "115107.703000", "115107.703000", "115107.718000", "115107.718000", "115107.718000", "115107.734000", "115107.734000", "115107.734000", "115107.734000", "115107.734000", "115107.734000", "115107.750000", "115107.750000", "115147.687000", "115147.687000", "115147.703000", "115147.703000", "115147.703000", "115147.703000", "115147.703000", "115147.703000", "115147.703000", "115147.703000", "115147.718000", "115147.718000", "115147.718000", "115147.718000", "115147.718000", "115147.718000", "115147.718000", "115147.718000", "115147.734000", "115147.734000", "115227.687000", "115227.703000", "115227.703000", "115227.703000", "115227.703000", "115227.703000", "115227.703000", "115227.703000", "115227.718000", "115227.718000", "115227.734000", "115227.734000", "115227.734000", "115227.734000", "115227.734000", "115227.734000", "115227.750000", "115227.750000", "115227.750000", "115227.750000", "115307.687000", "115307.687000", "115307.703000", "115307.703000", "115307.703000", "115307.703000", "115307.703000", "115307.703000", "115307.703000", "115307.703000", "115307.718000", "115307.718000", "115307.718000", "115307.718000", "115307.718000", "115307.718000", "115307.718000", "115307.718000", "115307.734000", "115307.734000", "115347.687000", "115347.687000", "115347.703000", "115347.703000", "115347.703000", "115347.703000", "115347.703000", "115347.703000", "115347.703000", "115347.718000", "115347.718000", "115347.718000", "115347.718000", "115347.718000", "115347.718000", "115347.718000", "115347.718000", "115347.734000", "115347.734000", "115347.734000", "115422.812000", "115422.812000", "115422.812000", "115422.812000", "115422.812000", "115422.828000", "115422.828000", "115422.828000", "115422.828000", "115422.828000", "115422.828000", "115422.828000", "115422.843000", "115422.843000", "115422.843000", "115422.843000", "115422.843000", "115422.843000"],
      "InstanceCreationTime": ["114947.703000", "114947.703000", "114947.703000", "114947.703000", "114947.703000", "114947.703000", "114947.718000", "114947.718000", "114947.718000", "114947.718000", "114947.718000", "114947.718000", "114947.718000", "114947.734000", "114947.734000", "114947.734000", "114947.734000", "114947.734000", "114947.734000", "114947.750000", "114947.750000", "114947.750000", "114947.750000", "114947.750000", "114947.750000", "114947.750000", "115027.687000", "115027.687000", "115027.703000", "115027.703000", "115027.703000", "115027.703000", "115027.703000", "115027.718000", "115027.718000", "115027.718000", "115027.718000", "115027.718000", "115027.718000", "115027.734000", "115027.734000", "115027.734000", "115027.734000", "115027.734000", "115027.734000", "115027.734000", "115107.687000", "115107.687000", "115107.703000", "115107.703000", "115107.703000", "115107.703000", "115107.703000", "115107.703000", "115107.703000", "115107.718000", "115107.718000", "115107.718000", "115107.734000", "115107.734000", "115107.734000", "115107.734000", "115107.734000", "115107.734000", "115107.750000", "115107.750000", "115147.687000", "115147.687000", "115147.703000", "115147.703000", "115147.703000", "115147.703000", "115147.703000", "115147.703000", "115147.703000", "115147.703000", "115147.718000", "115147.718000", "115147.718000", "115147.718000", "115147.718000", "115147.718000", "115147.718000", "115147.718000", "115147.734000", "115147.734000", "115227.687000", "115227.703000", "115227.703000", "115227.703000", "115227.703000", "115227.703000", "115227.703000", "115227.703000", "115227.718000", "115227.718000", "115227.734000", "115227.734000", "115227.734000", "115227.734000", "115227.734000", "115227.734000", "115227.750000", "115227.750000", "115227.750000", "115227.750000", "115307.687000", "115307.687000", "115307.703000", "115307.703000", "115307.703000", "115307.703000", "115307.703000", "115307.703000", "115307.703000", "115307.703000", "115307.718000", "115307.718000", "115307.718000", "115307.718000", "115307.718000", "115307.718000", "115307.718000", "115307.718000", "115307.734000", "115307.734000", "115347.687000", "115347.687000", "115347.703000", "115347.703000", "115347.703000", "115347.703000", "115347.703000", "115347.703000", "115347.703000", "115347.718000", "115347.718000", "115347.718000", "115347.718000", "115347.718000", "115347.718000", "115347.718000", "115347.718000", "115347.734000", "115347.734000", "115347.734000", "115422.812000", "115422.812000", "115422.812000", "115422.812000", "115422.812000", "115422.828000", "115422.828000", "115422.828000", "115422.828000", "115422.828000", "115422.828000", "115422.828000", "115422.843000", "115422.843000", "115422.843000", "115422.843000", "115422.843000", "115422.843000"],
      "InstanceNumber": [1, 2, 3, 4, 5, 6, 7, 8, 9, 10, 11, 12, 13, 14, 15, 16, 17, 18, 19, 20, 21, 22, 23, 24, 25, 26, 27, 28, 29, 30, 31, 32, 33, 34, 35, 36, 37, 38, 39, 40, 41, 42, 43, 44, 45, 46, 47, 48, 49, 50, 51, 52, 53, 54, 55, 56, 57, 58, 59, 60, 61, 62, 63, 64, 65, 66, 67, 68, 69, 70, 71, 72, 73, 74, 75, 76, 77, 78, 79, 80, 81, 82, 83, 84, 85, 86, 87, 88, 89, 90, 91, 92, 93, 94, 95, 96, 97, 98, 99, 100, 101, 102, 103, 104, 105, 106, 107, 108, 109, 110, 111, 112, 113, 114, 115, 116, 117, 118, 119, 120, 121, 122, 123, 124, 125, 126, 127, 128, 129, 130, 131, 132, 133, 134, 135, 136, 137, 138, 139, 140, 141, 142, 143, 144, 145, 146, 147, 148, 149, 150, 151, 152, 153, 154, 155, 156, 157, 158, 159, 160, 161, 162, 163, 164],
      "LargestImagePixelValue": [1757, 1716, 1688, 1674, 1667, 1666, 1664, 1666, 1676, 1671, 1663, 1680, 1655, 1672, 1669, 1671, 1664, 1664, 1677, 1675, 1661, 1679, 1673, 1672, 1670, 1661, 1670, 1677, 1675, 1671, 1669, 1671, 1661, 1666, 1667, 1666, 1670, 1659, 1668, 1671, 1667, 1664, 1671, 1689, 1661, 1646, 1675, 1655, 1674, 1661, 1656, 1669, 1655, 1658, 1655, 1663, 1670, 1678, 1670, 1660, 1663, 1675, 1655, 1659, 1661, 1660, 1665, 1660, 1663, 1670, 1671, 1661, 1666, 1656, 1661, 1650, 1663, 1673, 1669, 1660, 1661, 1659, 1669, 1669, 1673, 1660, 1651, 1670, 1649, 1666, 1656, 1664, 1660, 1672, 1664, 1659, 1661, 1656, 1661, 1656, 1658, 1670, 1649, 1675, 1660, 1675, 1663, 1669, 1656, 1678, 1678, 1679, 1663, 1662, 1677, 1662, 1680, 1670, 1666, 1673, 1663, 1660, 1669, 1694, 1675, 1672, 1676, 1660, 1674, 1675, 1688, 1682, 1677, 1675, 1676, 1663, 1671, 1669, 1664, 1664, 1665, 1690, 1677, 1671, 1676, 1674, 1667, 1687, 1669, 1686, 1675, 1664, 1680, 1678, 1672, 1668, 1671, 1665, 1673, 1685, 1678, 1681, 1684, 1668],
      "WindowCenter": [705.0, 703.0, 703.0, 702.0, 701.0, 701.0, 701.0, 701.0, 701.0, 701.0, 701.0, 701.0, 702.0, 702.0, 701.0, 701.0, 701.0, 701.0, 701.0, 701.0, 701.0, 701.0, 702.0, 702.0, 701.0, 701.0, 702.0, 702.0, 701.0, 702.0, 702.0, 702.0, 702.0, 702.0, 702.0, 703.0, 703.0, 703.0, 702.0, 702.0, 702.0, 702.0, 702.0, 702.0, 702.0, 702.0, 702.0, 702.0, 702.0, 703.0, 702.0, 702.0, 701.0, 701.0, 702.0, 702.0, 702.0, 702.0, 702.0, 702.0, 702.0, 703.0, 703.0, 703.0, 702.0, 703.0, 703.0, 703.0, 703.0, 703.0, 703.0, 703.0, 703.0, 704.0, 704.0, 703.0, 703.0, 703.0, 703.0, 703.0, 703.0, 703.0, 703.0, 703.0, 704.0, 703.0, 703.0, 703.0, 703.0, 704.0, 704.0, 703.0, 703.0, 704.0, 704.0, 704.0, 705.0, 704.0, 704.0, 703.0, 703.0, 703.0, 703.0, 703.0, 703.0, 703.0, 703.0, 702.0, 702.0, 702.0, 703.0, 703.0, 703.0, 703.0, 703.0, 702.0, 702.0, 702.0, 702.0, 702.0, 702.0, 703.0, 703.0, 704.0, 703.0, 704.0, 704.0, 704.0, 704.0, 704.0, 704.0, 704.0, 704.0, 704.0, 704.0, 703.0, 704.0, 704.0, 704.0, 703.0, 704.0, 704.0, 704.0, 704.0, 704.0, 704.0, 704.0, 704.0, 704.0, 704.0, 703.0, 703.0, 704.0, 705.0, 705.0, 704.0, 704.0, 705.0, 705.0, 704.0, 704.0, 704.0, 704.0, 704.0],
      "WindowWidth": [1549.0, 1544.0, 1542.0, 1540.0, 1538.0, 1537.0, 1537.0, 1536.0, 1538.0, 1538.0, 1537.0, 1538.0, 1539.0, 1539.0, 1537.0, 1537.0, 1537.0, 1537.0, 1538.0, 1539.0, 1538.0, 1538.0, 1539.0, 1539.0, 1538.0, 1538.0, 1540.0, 1540.0, 1539.0, 1539.0, 1539.0, 1540.0, 1539.0, 1540.0, 1540.0, 1543.0, 1544.0, 1543.0, 1541.0, 1541.0, 1540.0, 1539.0, 1540.0, 1541.0, 1540.0, 1539.0, 1539.0, 1539.0, 1541.0, 1543.0, 1542.0, 1540.0, 1538.0, 1538.0, 1540.0, 1541.0, 1541.0, 1540.0, 1540.0, 1539.0, 1541.0, 1543.0, 1543.0, 1542.0, 1542.0, 1542.0, 1543.0, 1543.0, 1543.0, 1543.0, 1544.0, 1543.0, 1544.0, 1545.0, 1545.0, 1544.0, 1542.0, 1543.0, 1543.0, 1544.0, 1544.0, 1542.0, 1543.0, 1543.0, 1545.0, 1544.0, 1544.0, 1543.0, 1543.0, 1545.0, 1545.0, 1544.0, 1544.0, 1545.0, 1545.0, 1548.0, 1548.0, 1547.0, 1545.0, 1543.0, 1542.0, 1543.0, 1543.0, 1544.0, 1544.0, 1544.0, 1542.0, 1541.0, 1540.0, 1542.0, 1543.0, 1544.0, 1543.0, 1543.0, 1543.0, 1541.0, 1541.0, 1541.0, 1541.0, 1541.0, 1541.0, 1542.0, 1544.0, 1545.0, 1544.0, 1545.0, 1545.0, 1545.0, 1547.0, 1546.0, 1545.0, 1547.0, 1548.0, 1546.0, 1545.0, 1544.0, 1545.0, 1545.0, 1545.0, 1545.0, 1545.0, 1547.0, 1547.0, 1546.0, 1546.0, 1546.0, 1547.0, 1547.0, 1545.0, 1545.0, 1545.0, 1544.0, 1545.0, 1548.0, 1548.0, 1546.0, 1546.0, 1548.0, 1548.0, 1547.0, 1546.0, 1545.0, 1545.0, 1546.0]
    },
    "slices": {}
  }
}