{
  "AcquisitionMatrixPE": 64,
  "AcquisitionNumber": 1,
  "AcquisitionTime": "09:53:21.450000",
  "BandwidthPerPixelPhaseEncode": 33.967,
  "BaseResolution": 64,
  "CoilCombinationMethod": "Sum of Squares",
  "CoilString": "C:HEA;HEP",
  "ConversionSoftware": "dcm2niix",
  "ConversionSoftwareVersion": "v1.0.20220720",
  "DerivedVendorReportedEchoSpacing": 0.000460005,
  "DeviceSerialNumber": "35193",
  "DwellTime": 3.1e-06,
  "EchoTime": 0.03,
  "EffectiveEchoSpacing": 0.000460005,
  "FlipAngle": 90,
  "HeudiconvVersion": "1.1.6",
  "ImageOrientationPatientDICOM": [1, 0, 0, 0, 1, 0],
  "ImageOrientationText": "Tra",
  "ImageType": [
    "ORIGINAL",
    "PRIMARY",
    "M",
    "ND",
    "MOSAIC"
],
  "ImagingFrequency": 123.254,
  "InPlanePhaseEncodingDirectionDICOM": "COL",
  "InstitutionAddress": "Xinjiekouwai Street No 19,Beijing,Haidian District,CN,100875",
  "InstitutionName": "BNU MRI Center",
  "InstitutionalDepartmentName": "Department",
  "MRAcquisitionType": "2D",
  "MagneticFieldStrength": 3,
  "Manufacturer": "Siemens",
  "ManufacturersModelName": "TrioTim",
  "MatrixCoilMode": "SENSE",
  "Modality": "MR",
  "NonlinearGradientCorrection": false,
  "PartialFourier": 1,
  "PatientPosition": "HFS",
  "PercentPhaseFOV": 100,
  "PercentSampling": 100,
  "PhaseEncodingDirection": "j-",
  "PhaseEncodingSteps": 64,
  "PhaseResolution": 1,
  "PixelBandwidth": 2520,
  "ProcedureStepDescription": "BNU_cst_2015^Guo.TaoMei",
  "ProtocolName": "ge_func_3x3x4_164",
  "PulseSequenceDetails": "%SiemensSeq%\\ep2d_bold",
  "ReceiveCoilName": "HeadMatrix",
  "ReconMatrixPE": 64,
  "RepetitionTime": 2,
  "SAR": 0.172645,
  "ScanOptions": "FS",
  "ScanningSequence": "EP",
  "SequenceName": "*epfid2d1_64",
  "SequenceVariant": "SK",
  "SeriesDescription": "ge_func_3x3x4_164",
  "SeriesNumber": 2,
  "ShimSetting": [-4526, -19371, -9801, 961, -201, -351, -54, -22],
  "SliceThickness": 4,
  "SliceTiming": [0, 1.035, 0.0625, 1.095, 0.1225, 1.1575, 0.1825, 1.2175, 0.245, 1.2775, 0.305, 1.34, 0.365, 1.4, 0.4275, 1.46, 0.4875, 1.5225, 0.5475, 1.5825, 0.61, 1.6425, 0.67, 1.705, 0.73, 1.765, 0.7925, 1.825, 0.8525, 1.8875, 0.9125, 1.9475, 0.975],
  "SoftwareVersions": "syngo MR B17",
  "SpacingBetweenSlices": 4.6,
  "StationName": "MRC35193",
  "TaskName": "CognitiveControl",
  "TotalReadoutTime": 0.0289803,
  "TxRefAmp": 390.007,
  "dcmmeta_affine": [
    [-3.125, 0.0, 0.0, 102.02409362792969],
    [0.0, 3.125, 0.0, -85.40512084960938],
    [0.0, 0.0, 4.599999904632568, -71.5759048461914],
    [0.0, 0.0, 0.0, 1.0]
],
  "dcmmeta_reorient_transform": [
    [0.0, -1.0, 0.0, 63.0],
    [1.0, 0.0, 0.0, 0.0],
    [0.0, 0.0, 1.0, 0.0],
    [0.0, 0.0, 0.0, 1.0]
],
  "dcmmeta_shape": [64, 64, 33, 164],
  "dcmmeta_slice_dim": 2,
  "dcmmeta_version": 0.6,
  "global": {
    "const": {
      "AcquisitionMatrix": [64, 0, 0, 64],
      "AngioFlag": "N",
      "BitsAllocated": 16,
      "BitsStored": 12,
      "Columns": 384,
      "EchoNumbers": 1,
      "EchoTime": 30.0,
      "EchoTrainLength": 1,
      "FlipAngle": 90.0,
      "HighBit": 11,
      "ImageOrientationPatient": [1.0, 0.0, 0.0, 0.0, 1.0, 0.0],
      "ImagePositionPatient": [-602.02409648895, -611.46987915039, -71.575904846191],
      "ImageType": [
        "ORIGINAL",
        "PRIMARY",
        "M",
        "ND",
        "MOSAIC"
],
      "ImagedNucleus": "1H",
      "ImagingFrequency": 123.253827,
      "InPlanePhaseEncodingDirection": "COL",
      "MRAcquisitionType": "2D",
      "MagneticFieldStrength": 3.0,
      "Manufacturer": "SIEMENS",
      "ManufacturerModelName": "TrioTim",
      "Modality": "MR",
      "NumberOfAverages": 1.0,
      "NumberOfPhaseEncodingSteps": 64,
      "PercentPhaseFieldOfView": 100.0,
      "PercentSampling": 100.0,
      "PerformedProcedureStepStartTime": "095102.484000",
      "PhotometricInterpretation": "MONOCHROME2",
      "PixelBandwidth": 2520.0,
      "PixelRepresentation": 0,
      "PixelSpacing": [3.125, 3.125],
      "ProtocolName": "ge_func_3x3x4_164",
      "RepetitionTime": 2000.0,
      "Rows": 384,
      "SAR": 0.17264488114388,
      "SamplesPerPixel": 1,
      "ScanOptions": "FS",
      "ScanningSequence": "EP",
      "SequenceName": "*epfid2d1_64",
      "SequenceVariant": "SK",
      "SeriesDescription": "ge_func_3x3x4_164",
      "SeriesNumber": 2,
      "SeriesTime": "095406.359000",
      "SliceLocation": -71.575904846191,
      "SliceThickness": 4.0,
      "SmallestImagePixelValue": 0,
      "SoftwareVersions": "syngo MR B17",
      "SpacingBetweenSlices": 4.6000001430511,
      "SpecificCharacterSet": "ISO_IR 100",
      "StudyID": "1",
      "StudyTime": "095101.703000",
      "TransmitCoilName": "Body",
      "VariableFlipAngleFlag": "N",
      "WindowCenterWidthExplanation": "Algo1",
      "dBdt": 0.0},
    "slices": {}
  },
  "time": {
    "samples": {
      "AcquisitionNumber": [1, 2, 3, 4, 5, 6, 7, 8, 9, 10, 11, 12, 13, 14, 15, 16, 17, 18, 19, 20, 21, 22, 23, 24, 25, 26, 27, 28, 29, 30, 31, 32, 33, 34, 35, 36, 37, 38, 39, 40, 41, 42, 43, 44, 45, 46, 47, 48, 49, 50, 51, 52, 53, 54, 55, 56, 57, 58, 59, 60, 61, 62, 63, 64, 65, 66, 67, 68, 69, 70, 71, 72, 73, 74, 75, 76, 77, 78, 79, 80, 81, 82, 83, 84, 85, 86, 87, 88, 89, 90, 91, 92, 93, 94, 95, 96, 97, 98, 99, 100, 101, 102, 103, 104, 105, 106, 107, 108, 109, 110, 111, 112, 113, 114, 115, 116, 117, 118, 119, 120, 121, 122, 123, 124, 125, 126, 127, 128, 129, 130, 131, 132, 133, 134, 135, 136, 137, 138, 139, 140, 141, 142, 143, 144, 145, 146, 147, 148, 149, 150, 151, 152, 153, 154, 155, 156, 157, 158, 159, 160, 161, 162, 163, 164],
      "AcquisitionTime": ["095321.450000", "095323.460000", "095325.467500", "095327.475000", "095329.482500", "095331.490000", "095333.500000", "095335.507500", "095337.515000", "095339.522500", "095341.532500", "095343.540000", "095345.547500", "095347.555000", "095349.562500", "095351.572500", "095353.580000", "095355.587500", "095357.595000", "095359.602500", "095401.612500", "095403.620000", "095405.627500", "095407.635000", "095409.642500", "095411.652500", "095413.660000", "095415.667500", "095417.675000", "095419.685000", "095421.692500", "095423.700000", "095425.707500", "095427.715000", "095429.725000", "095431.732500", "095433.740000", "095435.747500", "095437.755000", "095439.765000", "095441.772500", "095443.780000", "095445.787500", "095447.797500", "095449.805000", "095451.812500", "095453.820000", "095455.827500", "095457.837500", "095459.845000", "095501.852500", "095503.860000", "095505.867500", "095507.877500", "095509.885000", "095511.892500", "095513.900000", "095515.910000", "095517.917500", "095519.925000", "095521.932500", "095523.940000", "095525.950000", "095527.957500", "095529.965000", "095531.972500", "095533.980000", "095535.990000", "095537.997500", "095540.005000", "095542.012500", "095544.022500", "095546.030000", "095548.037500", "095550.045000", "095552.052500", "095554.062500", "095556.070000", "095558.077500", "095600.085000", "095602.092500", "095604.102500", "095606.110000", "095608.117500", "095610.125000", "095612.132500", "095614.142500", "095616.150000", "095618.157500", "095620.165000", "095622.175000", "095624.182500", "095626.190000", "095628.197500", "095630.205000", "095632.215000", "095634.222500", "095636.230000", "095638.237500", "095640.245000", "095642.255000", "095644.262500", "095646.270000", "095648.277500", "095650.287500", "095652.295000", "095654.302500", "095656.310000", "095658.317500", "095700.327500", "095702.335000", "095704.342500", "095706.350000", "095708.357500", "095710.367500", "095712.375000", "095714.382500", "095716.390000", "095718.400000", "095720.407500", "095722.415000", "095724.422500", "095726.430000", "095728.440000", "095730.447500", "095732.455000", "095734.462500", "095736.470000", "095738.480000", "095740.487500", "095742.495000", "095744.502500", "095746.510000", "095748.520000", "095750.527500", "095752.535000", "095754.542500", "095756.552500", "095758.560000", "095800.567500", "095802.575000", "095804.582500", "095806.592500", "095808.600000", "095810.607500", "095812.615000", "095814.622500", "095816.632500", "095818.640000", "095820.647500", "095822.655000", "095824.665000", "095826.672500", "095828.680000", "095830.687500", "095832.695000", "095834.705000", "095836.712500", "095838.720000", "095840.727500", "095842.735000", "095844.745000", "095846.752500", "095848.760000"],
      "ContentTime": ["095406.359000", "095406.359000", "095406.375000", "095406.375000", "095406.375000", "095406.375000", "095406.390000", "095406.390000", "095406.390000", "095406.390000", "095406.390000", "095406.390000", "095406.390000", "095406.390000", "095406.406000", "095406.406000", "095406.406000", "095406.406000", "095406.406000", "095406.406000", "095406.406000", "095406.421000", "095446.359000", "095446.359000", "095446.359000", "095446.359000", "095446.359000", "095446.359000", "095446.359000", "095446.375000", "095446.375000", "095446.375000", "095446.375000", "095446.375000", "095446.375000", "095446.375000", "095446.390000", "095446.390000", "095446.390000", "095446.390000", "095446.390000", "095446.390000", "095526.359000", "095526.359000", "095526.359000", "095526.359000", "095526.359000", "095526.359000", "095526.359000", "095526.359000", "095526.375000", "095526.375000", "095526.375000", "095526.375000", "095526.375000", "095526.375000", "095526.375000", "095526.375000", "095526.390000", "095526.390000", "095526.390000", "095526.390000", "095546.359000", "095546.359000", "095546.359000", "095546.359000", "095546.359000", "095546.375000", "095546.375000", "095546.375000", "095546.390000", "095546.390000", "095626.359000", "095626.359000", "095626.359000", "095626.359000", "095626.359000", "095626.359000", "095626.359000", "095626.359000", "095626.375000", "095626.375000", "095626.375000", "095626.375000", "095626.375000", "095626.375000", "095626.375000", "095626.375000", "095626.390000", "095626.390000", "095626.390000", "095626.390000", "095706.359000", "095706.359000", "095706.359000", "095706.359000", "095706.375000", "095706.375000", "095706.375000", "095706.375000", "095706.375000", "095706.375000", "095706.375000", "095706.375000", "095706.390000", "095706.390000", "095706.390000", "095706.390000", "095706.390000", "095706.390000", "095706.390000", "095706.390000", "095746.359000", "095746.359000", "095746.359000", "095746.359000", "095746.359000", "095746.359000", "095746.359000", "095746.359000", "095746.375000", "095746.375000", "095746.375000", "095746.375000", "095746.375000", "095746.375000", "095746.375000", "095746.375000", "095746.390000", "095746.390000", "095746.390000", "095746.390000", "095826.359000", "095826.359000", "095826.359000", "095826.359000", "095826.359000", "095826.359000", "095826.375000", "095826.375000", "095826.375000", "095826.375000", "095826.375000", "095826.375000", "095826.375000", "095826.375000", "095826.390000", "095826.390000", "095826.390000", "095826.390000", "095826.390000", "095826.390000", "095850.109000", "095850.109000", "095850.109000", "095850.109000", "095850.109000", "095850.125000", "095850.125000", "095850.125000", "095850.125000", "095850.125000", "095850.125000", "095850.125000"],
      "InstanceCreationTime": ["095406.359000", "095406.359000", "095406.375000", "095406.375000", "095406.375000", "095406.375000", "095406.390000", "095406.390000", "095406.390000", "095406.390000", "095406.390000", "095406.390000", "095406.390000", "095406.390000", "095406.406000", "095406.406000", "095406.406000", "095406.406000", "095406.406000", "095406.406000", "095406.406000", "095406.421000", "095446.359000", "095446.359000", "095446.359000", "095446.359000", "095446.359000", "095446.359000", "095446.359000", "095446.375000", "095446.375000", "095446.375000", "095446.375000", "095446.375000", "095446.375000", "095446.375000", "095446.390000", "095446.390000", "095446.390000", "095446.390000", "095446.390000", "095446.390000", "095526.359000", "095526.359000", "095526.359000", "095526.359000", "095526.359000", "095526.359000", "095526.359000", "095526.359000", "095526.375000", "095526.375000", "095526.375000", "095526.375000", "095526.375000", "095526.375000", "095526.375000", "095526.375000", "095526.390000", "095526.390000", "095526.390000", "095526.390000", "095546.359000", "095546.359000", "095546.359000", "095546.359000", "095546.359000", "095546.375000", "095546.375000", "095546.375000", "095546.390000", "095546.390000", "095626.359000", "095626.359000", "095626.359000", "095626.359000", "095626.359000", "095626.359000", "095626.359000", "095626.359000", "095626.375000", "095626.375000", "095626.375000", "095626.375000", "095626.375000", "095626.375000", "095626.375000", "095626.375000", "095626.390000", "095626.390000", "095626.390000", "095626.390000", "095706.359000", "095706.359000", "095706.359000", "095706.359000", "095706.375000", "095706.375000", "095706.375000", "095706.375000", "095706.375000", "095706.375000", "095706.375000", "095706.375000", "095706.390000", "095706.390000", "095706.390000", "095706.390000", "095706.390000", "095706.390000", "095706.390000", "095706.390000", "095746.359000", "095746.359000", "095746.359000", "095746.359000", "095746.359000", "095746.359000", "095746.359000", "095746.359000", "095746.375000", "095746.375000", "095746.375000", "095746.375000", "095746.375000", "095746.375000", "095746.375000", "095746.375000", "095746.390000", "095746.390000", "095746.390000", "095746.390000", "095826.359000", "095826.359000", "095826.359000", "095826.359000", "095826.359000", "095826.359000", "095826.375000", "095826.375000", "095826.375000", "095826.375000", "095826.375000", "095826.375000", "095826.375000", "095826.375000", "095826.390000", "095826.390000", "095826.390000", "095826.390000", "095826.390000", "095826.390000", "095850.109000", "095850.109000", "095850.109000", "095850.109000", "095850.109000", "095850.125000", "095850.125000", "095850.125000", "095850.125000", "095850.125000", "095850.125000", "095850.125000"],
      "InstanceNumber": [1, 2, 3, 4, 5, 6, 7, 8, 9, 10, 11, 12, 13, 14, 15, 16, 17, 18, 19, 20, 21, 22, 23, 24, 25, 26, 27, 28, 29, 30, 31, 32, 33, 34, 35, 36, 37, 38, 39, 40, 41, 42, 43, 44, 45, 46, 47, 48, 49, 50, 51, 52, 53, 54, 55, 56, 57, 58, 59, 60, 61, 62, 63, 64, 65, 66, 67, 68, 69, 70, 71, 72, 73, 74, 75, 76, 77, 78, 79, 80, 81, 82, 83, 84, 85, 86, 87, 88, 89, 90, 91, 92, 93, 94, 95, 96, 97, 98, 99, 100, 101, 102, 103, 104, 105, 106, 107, 108, 109, 110, 111, 112, 113, 114, 115, 116, 117, 118, 119, 120, 121, 122, 123, 124, 125, 126, 127, 128, 129, 130, 131, 132, 133, 134, 135, 136, 137, 138, 139, 140, 141, 142, 143, 144, 145, 146, 147, 148, 149, 150, 151, 152, 153, 154, 155, 156, 157, 158, 159, 160, 161, 162, 163, 164],
      "LargestImagePixelValue": [2175, 2100, 2086, 2073, 2089, 2033, 2055, 2067, 2041, 2040, 2053, 2051, 2073, 2045, 2055, 2074, 2062, 2051, 2058, 2099, 2083, 2077, 2068, 2076, 2058, 2068, 2068, 2074, 2069, 2074, 2063, 2067, 2066, 2074, 2083, 2063, 2076, 2089, 2081, 2083, 2067, 2072, 2070, 2083, 2081, 2073, 2089, 2085, 2078, 2058, 2085, 2077, 2072, 2093, 2107, 2077, 2070, 2065, 2078, 2100, 2082, 2097, 2090, 2082, 2087, 2093, 2104, 2108, 2114, 2101, 2086, 2085, 2078, 2077, 2080, 2085, 2094, 2074, 2093, 2102, 2106, 2095, 2083, 2085, 2078, 2094, 2085, 2107, 2083, 2088, 2089, 2095, 2101, 2105, 2086, 2083, 2086, 2075, 2088, 2090, 2079, 2073, 2080, 2109, 2098, 2107, 2087, 2088, 2091, 2089, 2069, 2064, 2076, 2064, 2076, 2072, 2074, 2075, 2085, 2083, 2068, 2075, 2097, 2111, 2187, 2083, 2066, 2079, 2083, 2102, 2084, 2066, 2078, 2100, 2107, 2100, 2108, 2097, 2087, 2093, 2099, 2099, 2104, 2124, 2122, 2112, 2108, 2101, 2103, 2108, 2101, 2107, 2100, 2105, 2111, 2109, 2095, 2097, 2107, 2099, 2110, 2122, 2092, 2091],
      "WindowCenter": [775.0, 774.0, 773.0, 772.0, 772.0, 771.0, 771.0, 771.0, 771.0, 770.0, 770.0, 772.0, 772.0, 772.0, 772.0, 772.0, 772.0, 772.0, 773.0, 773.0, 772.0, 772.0, 772.0, 773.0, 773.0, 773.0, 772.0, 772.0, 772.0, 772.0, 773.0, 773.0, 773.0, 773.0, 772.0, 772.0, 773.0, 773.0, 772.0, 771.0, 771.0, 771.0, 770.0, 770.0, 772.0, 771.0, 772.0, 773.0, 773.0, 773.0, 773.0, 773.0, 773.0, 773.0, 774.0, 774.0, 773.0, 773.0, 774.0, 775.0, 774.0, 773.0, 773.0, 773.0, 773.0, 774.0, 775.0, 776.0, 776.0, 775.0, 774.0, 773.0, 773.0, 772.0, 772.0, 772.0, 773.0, 773.0, 774.0, 775.0, 775.0, 774.0, 774.0, 774.0, 773.0, 774.0, 774.0, 773.0, 773.0, 773.0, 772.0, 773.0, 774.0, 774.0, 772.0, 772.0, 772.0, 772.0, 772.0, 774.0, 774.0, 774.0, 775.0, 776.0, 775.0, 775.0, 776.0, 775.0, 774.0, 773.0, 772.0, 772.0, 771.0, 771.0, 773.0, 774.0, 772.0, 773.0, 773.0, 774.0, 776.0, 776.0, 777.0, 776.0, 776.0, 773.0, 772.0, 773.0, 773.0, 772.0, 772.0, 772.0, 773.0, 776.0, 776.0, 774.0, 774.0, 773.0, 774.0, 774.0, 775.0, 776.0, 776.0, 776.0, 775.0, 775.0, 774.0, 774.0, 773.0, 773.0, 774.0, 775.0, 776.0, 777.0, 776.0, 774.0, 773.0, 773.0, 774.0, 774.0, 774.0, 773.0, 773.0, 774.0],
      "WindowWidth": [1697.0, 1692.0, 1691.0, 1687.0, 1686.0, 1683.0, 1683.0, 1685.0, 1684.0, 1682.0, 1683.0, 1687.0, 1688.0, 1687.0, 1687.0, 1688.0, 1688.0, 1687.0, 1690.0, 1691.0, 1688.0, 1688.0, 1688.0, 1689.0, 1689.0, 1689.0, 1687.0, 1687.0, 1688.0, 1688.0, 1689.0, 1690.0, 1691.0, 1689.0, 1686.0, 1688.0, 1690.0, 1689.0, 1687.0, 1685.0, 1685.0, 1684.0, 1683.0, 1683.0, 1686.0, 1686.0, 1688.0, 1690.0, 1690.0, 1689.0, 1690.0, 1691.0, 1691.0, 1690.0, 1693.0, 1692.0, 1690.0, 1690.0, 1692.0, 1695.0, 1692.0, 1690.0, 1690.0, 1689.0, 1691.0, 1691.0, 1695.0, 1698.0, 1697.0, 1694.0, 1692.0, 1689.0, 1689.0, 1688.0, 1687.0, 1688.0, 1689.0, 1691.0, 1693.0, 1695.0, 1695.0, 1692.0, 1692.0, 1692.0, 1691.0, 1693.0, 1692.0, 1691.0, 1690.0, 1689.0, 1688.0, 1691.0, 1692.0, 1691.0, 1688.0, 1686.0, 1687.0, 1687.0, 1688.0, 1692.0, 1693.0, 1692.0, 1695.0, 1697.0, 1694.0, 1695.0, 1697.0, 1694.0, 1692.0, 1690.0, 1687.0, 1687.0, 1684.0, 1685.0, 1691.0, 1691.0, 1688.0, 1688.0, 1689.0, 1692.0, 1697.0, 1699.0, 1700.0, 1699.0, 1698.0, 1689.0, 1687.0, 1688.0, 1689.0, 1688.0, 1688.0, 1686.0, 1689.0, 1697.0, 1697.0, 1692.0, 1691.0, 1690.0, 1691.0, 1691.0, 1694.0, 1698.0, 1698.0, 1697.0, 1695.0, 1694.0, 1693.0, 1691.0, 1690.0, 1689.0, 1691.0, 1694.0, 1697.0, 1700.0, 1698.0, 1692.0, 1690.0, 1690.0, 1692.0, 1693.0, 1692.0, 1691.0, 1691.0, 1691.0]
    },
    "slices": {}
  }
}