{
  "AcquisitionMatrixPE": 64,
  "AcquisitionNumber": 1,
  "AcquisitionTime": "09:43:47.382500",
  "BandwidthPerPixelPhaseEncode": 33.967,
  "BaseResolution": 64,
  "CoilCombinationMethod": "Sum of Squares",
  "CoilString": "C:HEA;HEP",
  "ConversionSoftware": "dcm2niix",
  "ConversionSoftwareVersion": "v1.0.20220720",
  "DerivedVendorReportedEchoSpacing": 0.000460005,
  "DeviceSerialNumber": "35193",
  "DwellTime": 3.1e-06,
  "EchoTime": 0.03,
  "EffectiveEchoSpacing": 0.000460005,
  "FlipAngle": 90,
  "HeudiconvVersion": "1.1.6",
  "ImageOrientationPatientDICOM": [1, 0, 0, 0, 1, 0],
  "ImageOrientationText": "Tra",
  "ImageType": [
    "ORIGINAL",
    "PRIMARY",
    "M",
    "ND",
    "MOSAIC"
],
  "ImagingFrequency": 123.254,
  "InPlanePhaseEncodingDirectionDICOM": "COL",
  "InstitutionAddress": "Xinjiekouwai Street No 19,Beijing,Haidian District,CN,100875",
  "InstitutionName": "Beijing Normal Universtiy/577BC4/",
  "InstitutionalDepartmentName": "Department",
  "MRAcquisitionType": "2D",
  "MagneticFieldStrength": 3,
  "Manufacturer": "Siemens",
  "ManufacturersModelName": "TrioTim",
  "MatrixCoilMode": "SENSE",
  "Modality": "MR",
  "NonlinearGradientCorrection": false,
  "PartialFourier": 1,
  "PatientPosition": "HFS",
  "PercentPhaseFOV": 100,
  "PercentSampling": 100,
  "PhaseEncodingDirection": "j-",
  "PhaseEncodingSteps": 64,
  "PhaseResolution": 1,
  "PixelBandwidth": 2520,
  "ProcedureStepDescription": "BNU_cst_2015^Guo.TaoMei",
  "ProtocolName": "ge_func_3x3x4_164",
  "PulseSequenceDetails": "%SiemensSeq%\\ep2d_bold",
  "ReceiveCoilName": "HeadMatrix",
  "ReconMatrixPE": 64,
  "RepetitionTime": 2,
  "SAR": 0.123462,
  "ScanOptions": "FS",
  "ScanningSequence": "EP",
  "SequenceName": "*epfid2d1_64",
  "SequenceVariant": "SK",
  "SeriesDescription": "ge_func_3x3x4_164",
  "SeriesNumber": 3,
  "ShimSetting": [-4497, -19401, -9895, 1120, -132, -303, -171, 27],
  "SliceThickness": 4,
  "SliceTiming": [0, 1.035, 0.0625, 1.095, 0.1225, 1.1575, 0.1825, 1.2175, 0.245, 1.2775, 0.305, 1.34, 0.365, 1.4, 0.4275, 1.46, 0.4875, 1.5225, 0.5475, 1.5825, 0.61, 1.6425, 0.67, 1.705, 0.73, 1.765, 0.7925, 1.825, 0.8525, 1.8875, 0.9125, 1.9475, 0.975],
  "SoftwareVersions": "syngo MR B17",
  "SpacingBetweenSlices": 4.6,
  "StationName": "MRC35193",
  "TaskName": "LanguageControl",
  "TotalReadoutTime": 0.0289803,
  "TxRefAmp": 345.993,
  "dcmmeta_affine": [
    [-3.125, 0.0, 0.0, 100.0],
    [0.0, 3.125, 0.0, -85.40512084960938],
    [0.0, 0.0, 4.599999904632568, -67.5277099609375],
    [0.0, 0.0, 0.0, 1.0]
],
  "dcmmeta_reorient_transform": [
    [0.0, -1.0, 0.0, 63.0],
    [1.0, 0.0, 0.0, 0.0],
    [0.0, 0.0, 1.0, 0.0],
    [0.0, 0.0, 0.0, 1.0]
],
  "dcmmeta_shape": [64, 64, 33, 164],
  "dcmmeta_slice_dim": 2,
  "dcmmeta_version": 0.6,
  "global": {
    "const": {
      "AcquisitionMatrix": [64, 0, 0, 64],
      "AngioFlag": "N",
      "BitsAllocated": 16,
      "BitsStored": 12,
      "Columns": 384,
      "EchoNumbers": 1,
      "EchoTime": 30.0,
      "EchoTrainLength": 1,
      "FlipAngle": 90.0,
      "HighBit": 11,
      "ImageOrientationPatient": [1.0, 0.0, 0.0, 0.0, 1.0, 0.0],
      "ImagePositionPatient": [-600.0, -611.46987915039, -67.527709960938],
      "ImageType": [
        "ORIGINAL",
        "PRIMARY",
        "M",
        "ND",
        "MOSAIC"
],
      "ImagedNucleus": "1H",
      "ImagingFrequency": 123.253634,
      "InPlanePhaseEncodingDirection": "COL",
      "MRAcquisitionType": "2D",
      "MagneticFieldStrength": 3.0,
      "Manufacturer": "SIEMENS",
      "ManufacturerModelName": "TrioTim",
      "Modality": "MR",
      "NumberOfAverages": 1.0,
      "NumberOfPhaseEncodingSteps": 64,
      "PercentPhaseFieldOfView": 100.0,
      "PercentSampling": 100.0,
      "PerformedProcedureStepStartTime": "093529.234000",
      "PhotometricInterpretation": "MONOCHROME2",
      "PixelBandwidth": 2520.0,
      "PixelRepresentation": 0,
      "PixelSpacing": [3.125, 3.125],
      "ProtocolName": "ge_func_3x3x4_164",
      "RepetitionTime": 2000.0,
      "Rows": 384,
      "SAR": 0.12346211932237,
      "SamplesPerPixel": 1,
      "ScanOptions": "FS",
      "ScanningSequence": "EP",
      "SequenceName": "*epfid2d1_64",
      "SequenceVariant": "SK",
      "SeriesDescription": "ge_func_3x3x4_164",
      "SeriesNumber": 3,
      "SeriesTime": "094429.046000",
      "SliceLocation": -67.527709960938,
      "SliceThickness": 4.0,
      "SmallestImagePixelValue": 0,
      "SoftwareVersions": "syngo MR B17",
      "SpacingBetweenSlices": 4.5999999046326,
      "SpecificCharacterSet": "ISO_IR 100",
      "StudyID": "1",
      "StudyTime": "093528.484000",
      "TransmitCoilName": "Body",
      "VariableFlipAngleFlag": "N",
      "WindowCenterWidthExplanation": "Algo1",
      "dBdt": 0.0},
    "slices": {}
  },
  "time": {
    "samples": {
      "AcquisitionNumber": [1, 2, 3, 4, 5, 6, 7, 8, 9, 10, 11, 12, 13, 14, 15, 16, 17, 18, 19, 20, 21, 22, 23, 24, 25, 26, 27, 28, 29, 30, 31, 32, 33, 34, 35, 36, 37, 38, 39, 40, 41, 42, 43, 44, 45, 46, 47, 48, 49, 50, 51, 52, 53, 54, 55, 56, 57, 58, 59, 60, 61, 62, 63, 64, 65, 66, 67, 68, 69, 70, 71, 72, 73, 74, 75, 76, 77, 78, 79, 80, 81, 82, 83, 84, 85, 86, 87, 88, 89, 90, 91, 92, 93, 94, 95, 96, 97, 98, 99, 100, 101, 102, 103, 104, 105, 106, 107, 108, 109, 110, 111, 112, 113, 114, 115, 116, 117, 118, 119, 120, 121, 122, 123, 124, 125, 126, 127, 128, 129, 130, 131, 132, 133, 134, 135, 136, 137, 138, 139, 140, 141, 142, 143, 144, 145, 146, 147, 148, 149, 150, 151, 152, 153, 154, 155, 156, 157, 158, 159, 160, 161, 162, 163, 164],
      "AcquisitionTime": ["094347.382500", "094349.392500", "094351.400000", "094353.407500", "094355.415000", "094357.422500", "094359.432500", "094401.440000", "094403.447500", "094405.455000", "094407.462500", "094409.472500", "094411.480000", "094413.487500", "094415.495000", "094417.505000", "094419.512500", "094421.520000", "094423.527500", "094425.535000", "094427.545000", "094429.552500", "094431.560000", "094433.567500", "094435.575000", "094437.585000", "094439.592500", "094441.600000", "094443.607500", "094445.617500", "094447.625000", "094449.632500", "094451.640000", "094453.647500", "094455.657500", "094457.665000", "094459.672500", "094501.680000", "094503.687500", "094505.697500", "094507.705000", "094509.712500", "094511.720000", "094513.727500", "094515.737500", "094517.745000", "094519.752500", "094521.760000", "094523.770000", "094525.777500", "094527.785000", "094529.792500", "094531.800000", "094533.810000", "094535.817500", "094537.825000", "094539.832500", "094541.840000", "094543.850000", "094545.857500", "094547.865000", "094549.872500", "094551.882500", "094553.890000", "094555.897500", "094557.905000", "094559.912500", "094601.922500", "094603.930000", "094605.937500", "094607.945000", "094609.952500", "094611.962500", "094613.970000", "094615.977500", "094617.985000", "094619.995000", "094622.002500", "094624.010000", "094626.017500", "094628.025000", "094630.035000", "094632.042500", "094634.050000", "094636.057500", "094638.065000", "094640.075000", "094642.082500", "094644.090000", "094646.097500", "094648.105000", "094650.115000", "094652.122500", "094654.130000", "094656.137500", "094658.147500", "094700.155000", "094702.162500", "094704.170000", "094706.177500", "094708.187500", "094710.195000", "094712.202500", "094714.210000", "094716.217500", "094718.227500", "094720.235000", "094722.242500", "094724.250000", "094726.260000", "094728.267500", "094730.275000", "094732.282500", "094734.290000", "094736.300000", "094738.307500", "094740.315000", "094742.322500", "094744.330000", "094746.340000", "094748.347500", "094750.355000", "094752.362500", "094754.372500", "094756.380000", "094758.387500", "094800.395000", "094802.402500", "094804.412500", "094806.420000", "094808.427500", "094810.435000", "094812.442500", "094814.452500", "094816.460000", "094818.467500", "094820.475000", "094822.482500", "094824.492500", "094826.500000", "094828.507500", "094830.515000", "094832.525000", "094834.532500", "094836.540000", "094838.547500", "094840.555000", "094842.565000", "094844.572500", "094846.580000", "094848.587500", "094850.595000", "094852.605000", "094854.612500", "094856.620000", "094858.627500", "094900.637500", "094902.645000", "094904.652500", "094906.660000", "094908.667500", "094910.677500", "094912.685000", "094914.692500"],
      "ContentTime": ["094429.062000", "094429.062000", "094429.062000", "094429.062000", "094429.062000", "094429.062000", "094429.078000", "094429.078000", "094429.078000", "094429.078000", "094429.093000", "094429.093000", "094429.093000", "094429.093000", "094429.093000", "094429.093000", "094429.093000", "094429.093000", "094429.109000", "094429.109000", "094509.046000", "094509.046000", "094509.062000", "094509.062000", "094509.062000", "094509.062000", "094509.062000", "094509.062000", "094509.062000", "094509.062000", "094509.062000", "094509.078000", "094509.078000", "094509.078000", "094509.078000", "094509.078000", "094509.093000", "094509.093000", "094509.093000", "094509.093000", "094549.046000", "094549.046000", "094549.062000", "094549.062000", "094549.062000", "094549.062000", "094549.062000", "094549.062000", "094549.062000", "094549.078000", "094549.078000", "094549.078000", "094549.078000", "094549.078000", "094549.078000", "094549.078000", "094549.078000", "094549.093000", "094549.093000", "094549.093000", "094629.046000", "094629.046000", "094629.062000", "094629.062000", "094629.062000", "094629.062000", "094629.062000", "094629.062000", "094629.078000", "094629.078000", "094629.093000", "094629.093000", "094629.093000", "094629.093000", "094629.093000", "094629.093000", "094629.109000", "094629.109000", "094629.109000", "094629.109000", "094709.046000", "094709.046000", "094709.062000", "094709.062000", "094709.062000", "094709.062000", "094709.062000", "094709.078000", "094709.078000", "094709.078000", "094709.078000", "094709.078000", "094709.078000", "094709.078000", "094709.078000", "094709.093000", "094709.093000", "094709.093000", "094709.093000", "094709.093000", "094749.046000", "094749.046000", "094749.062000", "094749.062000", "094749.062000", "094749.062000", "094749.062000", "094749.062000", "094749.062000", "094749.062000", "094749.062000", "094749.078000", "094749.078000", "094749.078000", "094749.078000", "094749.078000", "094749.078000", "094749.078000", "094749.078000", "094749.093000", "094829.046000", "094829.046000", "094829.062000", "094829.062000", "094829.062000", "094829.062000", "094829.062000", "094829.062000", "094829.062000", "094829.062000", "094829.062000", "094829.078000", "094829.078000", "094829.078000", "094829.078000", "094829.078000", "094829.078000", "094829.078000", "094829.078000", "094829.093000", "094909.046000", "094909.046000", "094909.062000", "094909.062000", "094909.062000", "094909.062000", "094909.062000", "094909.062000", "094909.062000", "094909.062000", "094909.062000", "094909.078000", "094909.078000", "094909.078000", "094909.078000", "094909.078000", "094909.078000", "094909.078000", "094909.093000", "094909.093000", "094915.750000", "094915.750000", "094915.750000", "094915.750000"],
      "InstanceCreationTime": ["094429.062000", "094429.062000", "094429.062000", "094429.062000", "094429.062000", "094429.062000", "094429.078000", "094429.078000", "094429.078000", "094429.078000", "094429.093000", "094429.093000", "094429.093000", "094429.093000", "094429.093000", "094429.093000", "094429.093000", "094429.093000", "094429.109000", "094429.109000", "094509.046000", "094509.046000", "094509.062000", "094509.062000", "094509.062000", "094509.062000", "094509.062000", "094509.062000", "094509.062000", "094509.062000", "094509.062000", "094509.078000", "094509.078000", "094509.078000", "094509.078000", "094509.078000", "094509.093000", "094509.093000", "094509.093000", "094509.093000", "094549.046000", "094549.046000", "094549.062000", "094549.062000", "094549.062000", "094549.062000", "094549.062000", "094549.062000", "094549.062000", "094549.078000", "094549.078000", "094549.078000", "094549.078000", "094549.078000", "094549.078000", "094549.078000", "094549.078000", "094549.093000", "094549.093000", "094549.093000", "094629.046000", "094629.046000", "094629.062000", "094629.062000", "094629.062000", "094629.062000", "094629.062000", "094629.062000", "094629.078000", "094629.078000", "094629.093000", "094629.093000", "094629.093000", "094629.093000", "094629.093000", "094629.093000", "094629.109000", "094629.109000", "094629.109000", "094629.109000", "094709.046000", "094709.046000", "094709.062000", "094709.062000", "094709.062000", "094709.062000", "094709.062000", "094709.078000", "094709.078000", "094709.078000", "094709.078000", "094709.078000", "094709.078000", "094709.078000", "094709.078000", "094709.093000", "094709.093000", "094709.093000", "094709.093000", "094709.093000", "094749.046000", "094749.046000", "094749.062000", "094749.062000", "094749.062000", "094749.062000", "094749.062000", "094749.062000", "094749.062000", "094749.062000", "094749.062000", "094749.078000", "094749.078000", "094749.078000", "094749.078000", "094749.078000", "094749.078000", "094749.078000", "094749.078000", "094749.093000", "094829.046000", "094829.046000", "094829.062000", "094829.062000", "094829.062000", "094829.062000", "094829.062000", "094829.062000", "094829.062000", "094829.062000", "094829.062000", "094829.078000", "094829.078000", "094829.078000", "094829.078000", "094829.078000", "094829.078000", "094829.078000", "094829.078000", "094829.093000", "094909.046000", "094909.046000", "094909.062000", "094909.062000", "094909.062000", "094909.062000", "094909.062000", "094909.062000", "094909.062000", "094909.062000", "094909.062000", "094909.078000", "094909.078000", "094909.078000", "094909.078000", "094909.078000", "094909.078000", "094909.078000", "094909.093000", "094909.093000", "094915.750000", "094915.750000", "094915.750000", "094915.750000"],
      "InstanceNumber": [1, 2, 3, 4, 5, 6, 7, 8, 9, 10, 11, 12, 13, 14, 15, 16, 17, 18, 19, 20, 21, 22, 23, 24, 25, 26, 27, 28, 29, 30, 31, 32, 33, 34, 35, 36, 37, 38, 39, 40, 41, 42, 43, 44, 45, 46, 47, 48, 49, 50, 51, 52, 53, 54, 55, 56, 57, 58, 59, 60, 61, 62, 63, 64, 65, 66, 67, 68, 69, 70, 71, 72, 73, 74, 75, 76, 77, 78, 79, 80, 81, 82, 83, 84, 85, 86, 87, 88, 89, 90, 91, 92, 93, 94, 95, 96, 97, 98, 99, 100, 101, 102, 103, 104, 105, 106, 107, 108, 109, 110, 111, 112, 113, 114, 115, 116, 117, 118, 119, 120, 121, 122, 123, 124, 125, 126, 127, 128, 129, 130, 131, 132, 133, 134, 135, 136, 137, 138, 139, 140, 141, 142, 143, 144, 145, 146, 147, 148, 149, 150, 151, 152, 153, 154, 155, 156, 157, 158, 159, 160, 161, 162, 163, 164],
      "LargestImagePixelValue": [2040, 1958, 1953, 1918, 1937, 1938, 1950, 1936, 1940, 1944, 1949, 1913, 1928, 1937, 1922, 1927, 1921, 1910, 1921, 1911, 1896, 1910, 1931, 1911, 1878, 1879, 1856, 1892, 1908, 1906, 1896, 1901, 1893, 1893, 1913, 1883, 1906, 1876, 1882, 1877, 1872, 1864, 2095, 1855, 1837, 1848, 1807, 1829, 1817, 1903, 1803, 1812, 1818, 1819, 1829, 1810, 1794, 1786, 1813, 1791, 1814, 1808, 1785, 1928, 1823, 1831, 1820, 1843, 1837, 1810, 1836, 1822, 1818, 1805, 1843, 1836, 1801, 1813, 1805, 1993, 1803, 1796, 1819, 1799, 1785, 1800, 1820, 1827, 1804, 1806, 1807, 1807, 1785, 1793, 1829, 1815, 1783, 1761, 1918, 1774, 1782, 1758, 1782, 1751, 1752, 1769, 1761, 1757, 1755, 1758, 2039, 1760, 1754, 1765, 1874, 1761, 1767, 1764, 1765, 1753, 1764, 1771, 1760, 1747, 1759, 1766, 1924, 1767, 1764, 1762, 1768, 1851, 1775, 2000, 1783, 1772, 1815, 1783, 1771, 1782, 1826, 1784, 1772, 1769, 1763, 1778, 1780, 1781, 1779, 1777, 1775, 1962, 1779, 1786, 1789, 1772, 1801, 1789, 1779, 2099, 1777, 1796, 1782, 1799],
      "WindowCenter": [722.0, 720.0, 720.0, 720.0, 720.0, 719.0, 719.0, 718.0, 717.0, 718.0, 718.0, 718.0, 718.0, 718.0, 718.0, 718.0, 720.0, 720.0, 720.0, 720.0, 720.0, 720.0, 720.0, 720.0, 720.0, 720.0, 719.0, 718.0, 718.0, 718.0, 719.0, 719.0, 719.0, 719.0, 719.0, 719.0, 720.0, 719.0, 720.0, 719.0, 720.0, 720.0, 722.0, 720.0, 720.0, 720.0, 720.0, 720.0, 719.0, 719.0, 718.0, 717.0, 716.0, 716.0, 716.0, 717.0, 716.0, 717.0, 718.0, 718.0, 718.0, 719.0, 719.0, 718.0, 717.0, 718.0, 718.0, 719.0, 718.0, 718.0, 719.0, 719.0, 718.0, 719.0, 719.0, 719.0, 719.0, 719.0, 719.0, 720.0, 719.0, 718.0, 719.0, 719.0, 719.0, 719.0, 719.0, 720.0, 720.0, 719.0, 719.0, 719.0, 718.0, 719.0, 718.0, 718.0, 718.0, 718.0, 719.0, 718.0, 718.0, 718.0, 719.0, 718.0, 718.0, 718.0, 717.0, 718.0, 718.0, 718.0, 720.0, 718.0, 718.0, 719.0, 720.0, 719.0, 719.0, 719.0, 719.0, 718.0, 718.0, 719.0, 718.0, 718.0, 718.0, 718.0, 719.0, 718.0, 718.0, 719.0, 718.0, 719.0, 718.0, 720.0, 718.0, 718.0, 719.0, 718.0, 719.0, 720.0, 720.0, 719.0, 720.0, 720.0, 720.0, 721.0, 721.0, 721.0, 721.0, 720.0, 720.0, 721.0, 720.0, 720.0, 720.0, 720.0, 720.0, 719.0, 719.0, 720.0, 719.0, 719.0, 720.0, 719.0],
      "WindowWidth": [1563.0, 1558.0, 1558.0, 1557.0, 1557.0, 1553.0, 1553.0, 1551.0, 1549.0, 1551.0, 1552.0, 1551.0, 1551.0, 1551.0, 1550.0, 1552.0, 1556.0, 1556.0, 1556.0, 1555.0, 1557.0, 1557.0, 1557.0, 1557.0, 1557.0, 1557.0, 1553.0, 1551.0, 1551.0, 1552.0, 1553.0, 1553.0, 1554.0, 1555.0, 1555.0, 1554.0, 1555.0, 1555.0, 1557.0, 1555.0, 1555.0, 1556.0, 1561.0, 1557.0, 1556.0, 1557.0, 1557.0, 1556.0, 1554.0, 1553.0, 1550.0, 1549.0, 1546.0, 1545.0, 1547.0, 1548.0, 1547.0, 1550.0, 1550.0, 1550.0, 1553.0, 1555.0, 1553.0, 1551.0, 1549.0, 1551.0, 1551.0, 1553.0, 1552.0, 1552.0, 1553.0, 1553.0, 1553.0, 1554.0, 1554.0, 1554.0, 1554.0, 1555.0, 1555.0, 1557.0, 1553.0, 1552.0, 1554.0, 1553.0, 1554.0, 1553.0, 1556.0, 1557.0, 1556.0, 1553.0, 1554.0, 1554.0, 1552.0, 1553.0, 1551.0, 1551.0, 1550.0, 1552.0, 1554.0, 1551.0, 1551.0, 1552.0, 1553.0, 1551.0, 1550.0, 1550.0, 1549.0, 1550.0, 1551.0, 1552.0, 1556.0, 1551.0, 1551.0, 1553.0, 1558.0, 1555.0, 1554.0, 1554.0, 1553.0, 1552.0, 1551.0, 1553.0, 1551.0, 1552.0, 1552.0, 1552.0, 1555.0, 1552.0, 1551.0, 1553.0, 1551.0, 1555.0, 1551.0, 1556.0, 1552.0, 1552.0, 1555.0, 1552.0, 1554.0, 1555.0, 1556.0, 1554.0, 1556.0, 1555.0, 1555.0, 1559.0, 1560.0, 1559.0, 1558.0, 1557.0, 1555.0, 1559.0, 1555.0, 1556.0, 1557.0, 1557.0, 1556.0, 1553.0, 1552.0, 1558.0, 1554.0, 1554.0, 1555.0, 1554.0]
    },
    "slices": {}
  }
}