{
  "AcquisitionMatrixPE": 64,
  "AcquisitionNumber": 1,
  "AcquisitionTime": "09:37:30.432500",
  "BandwidthPerPixelPhaseEncode": 33.967,
  "BaseResolution": 64,
  "CoilCombinationMethod": "Sum of Squares",
  "CoilString": "C:HEA;HEP",
  "ConversionSoftware": "dcm2niix",
  "ConversionSoftwareVersion": "v1.0.20220720",
  "DerivedVendorReportedEchoSpacing": 0.000460005,
  "DeviceSerialNumber": "35193",
  "DwellTime": 3.1e-06,
  "EchoTime": 0.03,
  "EffectiveEchoSpacing": 0.000460005,
  "FlipAngle": 90,
  "HeudiconvVersion": "1.1.6",
  "ImageOrientationPatientDICOM": [1, 0, 0, 0, 1, 0],
  "ImageOrientationText": "Tra",
  "ImageType": [
    "ORIGINAL",
    "PRIMARY",
    "M",
    "ND",
    "MOSAIC"
],
  "ImagingFrequency": 123.254,
  "InPlanePhaseEncodingDirectionDICOM": "COL",
  "InstitutionAddress": "Xinjiekouwai Street No 19,Beijing,Haidian District,CN,100875",
  "InstitutionName": "Beijing Normal Universtiy/577BC4/",
  "InstitutionalDepartmentName": "Department",
  "MRAcquisitionType": "2D",
  "MagneticFieldStrength": 3,
  "Manufacturer": "Siemens",
  "ManufacturersModelName": "TrioTim",
  "MatrixCoilMode": "SENSE",
  "Modality": "MR",
  "NonlinearGradientCorrection": false,
  "PartialFourier": 1,
  "PatientPosition": "HFS",
  "PercentPhaseFOV": 100,
  "PercentSampling": 100,
  "PhaseEncodingDirection": "j-",
  "PhaseEncodingSteps": 64,
  "PhaseResolution": 1,
  "PixelBandwidth": 2520,
  "ProcedureStepDescription": "BNU_cst_2015^Guo.TaoMei",
  "ProtocolName": "ge_func_3x3x4_164",
  "PulseSequenceDetails": "%SiemensSeq%\\ep2d_bold",
  "ReceiveCoilName": "HeadMatrix",
  "ReconMatrixPE": 64,
  "RepetitionTime": 2,
  "SAR": 0.123462,
  "ScanOptions": "FS",
  "ScanningSequence": "EP",
  "SequenceName": "*epfid2d1_64",
  "SequenceVariant": "SK",
  "SeriesDescription": "ge_func_3x3x4_164",
  "SeriesNumber": 2,
  "ShimSetting": [-4497, -19401, -9895, 1120, -132, -303, -171, 27],
  "SliceThickness": 4,
  "SliceTiming": [0, 1.035, 0.0625, 1.095, 0.1225, 1.1575, 0.1825, 1.2175, 0.245, 1.2775, 0.305, 1.34, 0.365, 1.4, 0.4275, 1.46, 0.4875, 1.5225, 0.5475, 1.5825, 0.61, 1.6425, 0.67, 1.705, 0.73, 1.765, 0.7925, 1.825, 0.8525, 1.8875, 0.9125, 1.9475, 0.975],
  "SoftwareVersions": "syngo MR B17",
  "SpacingBetweenSlices": 4.6,
  "StationName": "MRC35193",
  "TaskName": "LanguageControl",
  "TotalReadoutTime": 0.0289803,
  "TxRefAmp": 345.993,
  "dcmmeta_affine": [
    [-3.125, 0.0, 0.0, 100.0],
    [0.0, 3.125, 0.0, -85.40512084960938],
    [0.0, 0.0, 4.599999904632568, -67.5277099609375],
    [0.0, 0.0, 0.0, 1.0]
],
  "dcmmeta_reorient_transform": [
    [0.0, -1.0, 0.0, 63.0],
    [1.0, 0.0, 0.0, 0.0],
    [0.0, 0.0, 1.0, 0.0],
    [0.0, 0.0, 0.0, 1.0]
],
  "dcmmeta_shape": [64, 64, 33, 164],
  "dcmmeta_slice_dim": 2,
  "dcmmeta_version": 0.6,
  "global": {
    "const": {
      "AcquisitionMatrix": [64, 0, 0, 64],
      "AngioFlag": "N",
      "BitsAllocated": 16,
      "BitsStored": 12,
      "Columns": 384,
      "EchoNumbers": 1,
      "EchoTime": 30.0,
      "EchoTrainLength": 1,
      "FlipAngle": 90.0,
      "HighBit": 11,
      "ImageOrientationPatient": [1.0, 0.0, 0.0, 0.0, 1.0, 0.0],
      "ImagePositionPatient": [-600.0, -611.46987915039, -67.527709960938],
      "ImageType": [
        "ORIGINAL",
        "PRIMARY",
        "M",
        "ND",
        "MOSAIC"
],
      "ImagedNucleus": "1H",
      "ImagingFrequency": 123.253631,
      "InPlanePhaseEncodingDirection": "COL",
      "MRAcquisitionType": "2D",
      "MagneticFieldStrength": 3.0,
      "Manufacturer": "SIEMENS",
      "ManufacturerModelName": "TrioTim",
      "Modality": "MR",
      "NumberOfAverages": 1.0,
      "NumberOfPhaseEncodingSteps": 64,
      "PercentPhaseFieldOfView": 100.0,
      "PercentSampling": 100.0,
      "PerformedProcedureStepStartTime": "093529.234000",
      "PhotometricInterpretation": "MONOCHROME2",
      "PixelBandwidth": 2520.0,
      "PixelRepresentation": 0,
      "PixelSpacing": [3.125, 3.125],
      "ProtocolName": "ge_func_3x3x4_164",
      "RepetitionTime": 2000.0,
      "Rows": 384,
      "SAR": 0.12346211932237,
      "SamplesPerPixel": 1,
      "ScanOptions": "FS",
      "ScanningSequence": "EP",
      "SequenceName": "*epfid2d1_64",
      "SequenceVariant": "SK",
      "SeriesDescription": "ge_func_3x3x4_164",
      "SeriesNumber": 2,
      "SeriesTime": "093820.218000",
      "SliceLocation": -67.527709960938,
      "SliceThickness": 4.0,
      "SmallestImagePixelValue": 0,
      "SoftwareVersions": "syngo MR B17",
      "SpacingBetweenSlices": 4.5999999046326,
      "SpecificCharacterSet": "ISO_IR 100",
      "StudyID": "1",
      "StudyTime": "093528.484000",
      "TransmitCoilName": "Body",
      "VariableFlipAngleFlag": "N",
      "WindowCenterWidthExplanation": "Algo1",
      "dBdt": 0.0},
    "slices": {}
  },
  "time": {
    "samples": {
      "AcquisitionNumber": [1, 2, 3, 4, 5, 6, 7, 8, 9, 10, 11, 12, 13, 14, 15, 16, 17, 18, 19, 20, 21, 22, 23, 24, 25, 26, 27, 28, 29, 30, 31, 32, 33, 34, 35, 36, 37, 38, 39, 40, 41, 42, 43, 44, 45, 46, 47, 48, 49, 50, 51, 52, 53, 54, 55, 56, 57, 58, 59, 60, 61, 62, 63, 64, 65, 66, 67, 68, 69, 70, 71, 72, 73, 74, 75, 76, 77, 78, 79, 80, 81, 82, 83, 84, 85, 86, 87, 88, 89, 90, 91, 92, 93, 94, 95, 96, 97, 98, 99, 100, 101, 102, 103, 104, 105, 106, 107, 108, 109, 110, 111, 112, 113, 114, 115, 116, 117, 118, 119, 120, 121, 122, 123, 124, 125, 126, 127, 128, 129, 130, 131, 132, 133, 134, 135, 136, 137, 138, 139, 140, 141, 142, 143, 144, 145, 146, 147, 148, 149, 150, 151, 152, 153, 154, 155, 156, 157, 158, 159, 160, 161, 162, 163, 164],
      "AcquisitionTime": ["093730.432500", "093732.442500", "093734.450000", "093736.457500", "093738.465000", "093740.472500", "093742.482500", "093744.490000", "093746.497500", "093748.505000", "093750.515000", "093752.522500", "093754.530000", "093756.537500", "093758.545000", "093800.555000", "093802.562500", "093804.570000", "093806.577500", "093808.585000", "093810.595000", "093812.602500", "093814.610000", "093816.617500", "093818.627500", "093820.635000", "093822.642500", "093824.650000", "093826.657500", "093828.667500", "093830.675000", "093832.682500", "093834.690000", "093836.697500", "093838.707500", "093840.715000", "093842.722500", "093844.730000", "093846.740000", "093848.747500", "093850.755000", "093852.762500", "093854.770000", "093856.780000", "093858.787500", "093900.795000", "093902.802500", "093904.810000", "093906.820000", "093908.827500", "093910.835000", "093912.842500", "093914.852500", "093916.860000", "093918.867500", "093920.875000", "093922.882500", "093924.892500", "093926.900000", "093928.907500", "093930.915000", "093932.922500", "093934.932500", "093936.940000", "093938.947500", "093940.955000", "093942.962500", "093944.972500", "093946.980000", "093948.987500", "093950.995000", "093953.005000", "093955.012500", "093957.020000", "093959.027500", "094001.035000", "094003.045000", "094005.052500", "094007.060000", "094009.067500", "094011.075000", "094013.085000", "094015.092500", "094017.100000", "094019.107500", "094021.117500", "094023.125000", "094025.132500", "094027.140000", "094029.147500", "094031.157500", "094033.165000", "094035.172500", "094037.180000", "094039.187500", "094041.197500", "094043.205000", "094045.212500", "094047.220000", "094049.230000", "094051.237500", "094053.245000", "094055.252500", "094057.260000", "094059.270000", "094101.277500", "094103.285000", "094105.292500", "094107.300000", "094109.310000", "094111.317500", "094113.325000", "094115.332500", "094117.340000", "094119.350000", "094121.357500", "094123.365000", "094125.372500", "094127.382500", "094129.390000", "094131.397500", "094133.405000", "094135.412500", "094137.422500", "094139.430000", "094141.437500", "094143.445000", "094145.452500", "094147.462500", "094149.470000", "094151.477500", "094153.485000", "094155.495000", "094157.502500", "094159.510000", "094201.517500", "094203.525000", "094205.535000", "094207.542500", "094209.550000", "094211.557500", "094213.565000", "094215.575000", "094217.582500", "094219.590000", "094221.597500", "094223.607500", "094225.615000", "094227.622500", "094229.630000", "094231.637500", "094233.647500", "094235.655000", "094237.662500", "094239.670000", "094241.677500", "094243.687500", "094245.695000", "094247.702500", "094249.710000", "094251.717500", "094253.727500", "094255.735000", "094257.742500"],
      "ContentTime": ["093820.234000", "093820.234000", "093820.234000", "093820.234000", "093820.234000", "093820.234000", "093820.250000", "093820.250000", "093820.250000", "093820.250000", "093820.265000", "093820.265000", "093820.265000", "093820.265000", "093820.265000", "093820.265000", "093820.265000", "093820.281000", "093820.281000", "093820.281000", "093820.281000", "093820.281000", "093820.296000", "093820.296000", "093900.218000", "093900.218000", "093900.234000", "093900.234000", "093900.234000", "093900.234000", "093900.234000", "093900.250000", "093900.250000", "093900.250000", "093900.250000", "093900.265000", "093900.265000", "093900.265000", "093900.265000", "093900.265000", "093900.265000", "093900.265000", "093900.265000", "093900.265000", "093940.218000", "093940.218000", "093940.234000", "093940.234000", "093940.234000", "093940.234000", "093940.234000", "093940.234000", "093940.234000", "093940.250000", "093940.250000", "093940.250000", "093940.265000", "093940.265000", "093940.265000", "093940.265000", "093940.265000", "093940.281000", "093940.281000", "093940.281000", "094020.218000", "094020.234000", "094020.234000", "094020.234000", "094020.250000", "094020.250000", "094020.250000", "094020.265000", "094020.265000", "094020.265000", "094020.265000", "094020.265000", "094020.265000", "094020.265000", "094020.265000", "094020.265000", "094020.281000", "094020.281000", "094020.281000", "094020.281000", "094100.218000", "094100.218000", "094100.234000", "094100.234000", "094100.234000", "094100.250000", "094100.250000", "094100.250000", "094100.250000", "094100.250000", "094100.250000", "094100.250000", "094100.250000", "094100.250000", "094100.265000", "094100.265000", "094100.265000", "094100.265000", "094100.265000", "094100.265000", "094140.218000", "094140.218000", "094140.234000", "094140.234000", "094140.250000", "094140.250000", "094140.250000", "094140.250000", "094140.250000", "094140.250000", "094140.250000", "094140.265000", "094140.265000", "094140.265000", "094140.265000", "094140.265000", "094140.265000", "094140.265000", "094140.265000", "094140.281000", "094220.218000", "094220.218000", "094220.234000", "094220.234000", "094220.234000", "094220.234000", "094220.234000", "094220.234000", "094220.250000", "094220.250000", "094220.250000", "094220.250000", "094220.250000", "094220.265000", "094220.265000", "094220.265000", "094220.265000", "094220.265000", "094220.265000", "094220.265000", "094258.875000", "094258.875000", "094258.875000", "094258.875000", "094258.875000", "094258.875000", "094258.875000", "094258.875000", "094258.890000", "094258.890000", "094258.890000", "094258.906000", "094258.906000", "094258.906000", "094258.906000", "094258.906000", "094258.906000", "094258.906000", "094258.921000", "094258.921000"],
      "InstanceCreationTime": ["093820.234000", "093820.234000", "093820.234000", "093820.234000", "093820.234000", "093820.234000", "093820.250000", "093820.250000", "093820.250000", "093820.250000", "093820.265000", "093820.265000", "093820.265000", "093820.265000", "093820.265000", "093820.265000", "093820.265000", "093820.281000", "093820.281000", "093820.281000", "093820.281000", "093820.281000", "093820.296000", "093820.296000", "093900.218000", "093900.218000", "093900.234000", "093900.234000", "093900.234000", "093900.234000", "093900.234000", "093900.250000", "093900.250000", "093900.250000", "093900.250000", "093900.265000", "093900.265000", "093900.265000", "093900.265000", "093900.265000", "093900.265000", "093900.265000", "093900.265000", "093900.265000", "093940.218000", "093940.218000", "093940.234000", "093940.234000", "093940.234000", "093940.234000", "093940.234000", "093940.234000", "093940.234000", "093940.250000", "093940.250000", "093940.250000", "093940.265000", "093940.265000", "093940.265000", "093940.265000", "093940.265000", "093940.281000", "093940.281000", "093940.281000", "094020.218000", "094020.234000", "094020.234000", "094020.234000", "094020.250000", "094020.250000", "094020.250000", "094020.265000", "094020.265000", "094020.265000", "094020.265000", "094020.265000", "094020.265000", "094020.265000", "094020.265000", "094020.265000", "094020.281000", "094020.281000", "094020.281000", "094020.281000", "094100.218000", "094100.218000", "094100.234000", "094100.234000", "094100.234000", "094100.250000", "094100.250000", "094100.250000", "094100.250000", "094100.250000", "094100.250000", "094100.250000", "094100.250000", "094100.250000", "094100.265000", "094100.265000", "094100.265000", "094100.265000", "094100.265000", "094100.265000", "094140.218000", "094140.218000", "094140.234000", "094140.234000", "094140.250000", "094140.250000", "094140.250000", "094140.250000", "094140.250000", "094140.250000", "094140.250000", "094140.265000", "094140.265000", "094140.265000", "094140.265000", "094140.265000", "094140.265000", "094140.265000", "094140.265000", "094140.281000", "094220.218000", "094220.218000", "094220.234000", "094220.234000", "094220.234000", "094220.234000", "094220.234000", "094220.234000", "094220.250000", "094220.250000", "094220.250000", "094220.250000", "094220.250000", "094220.265000", "094220.265000", "094220.265000", "094220.265000", "094220.265000", "094220.265000", "094220.265000", "094258.875000", "094258.875000", "094258.875000", "094258.875000", "094258.875000", "094258.875000", "094258.875000", "094258.875000", "094258.890000", "094258.890000", "094258.890000", "094258.906000", "094258.906000", "094258.906000", "094258.906000", "094258.906000", "094258.906000", "094258.906000", "094258.921000", "094258.921000"],
      "InstanceNumber": [1, 2, 3, 4, 5, 6, 7, 8, 9, 10, 11, 12, 13, 14, 15, 16, 17, 18, 19, 20, 21, 22, 23, 24, 25, 26, 27, 28, 29, 30, 31, 32, 33, 34, 35, 36, 37, 38, 39, 40, 41, 42, 43, 44, 45, 46, 47, 48, 49, 50, 51, 52, 53, 54, 55, 56, 57, 58, 59, 60, 61, 62, 63, 64, 65, 66, 67, 68, 69, 70, 71, 72, 73, 74, 75, 76, 77, 78, 79, 80, 81, 82, 83, 84, 85, 86, 87, 88, 89, 90, 91, 92, 93, 94, 95, 96, 97, 98, 99, 100, 101, 102, 103, 104, 105, 106, 107, 108, 109, 110, 111, 112, 113, 114, 115, 116, 117, 118, 119, 120, 121, 122, 123, 124, 125, 126, 127, 128, 129, 130, 131, 132, 133, 134, 135, 136, 137, 138, 139, 140, 141, 142, 143, 144, 145, 146, 147, 148, 149, 150, 151, 152, 153, 154, 155, 156, 157, 158, 159, 160, 161, 162, 163, 164],
      "LargestImagePixelValue": [2005, 1951, 1911, 1895, 1908, 1889, 1894, 1925, 1945, 1925, 1952, 1951, 1942, 1941, 1935, 1935, 1941, 1938, 1945, 1920, 1946, 1921, 1942, 1937, 1943, 1958, 1936, 1953, 1949, 1951, 1949, 1955, 1948, 1957, 1956, 1950, 1948, 1957, 1963, 1958, 1953, 1959, 1955, 1960, 1960, 1935, 1932, 1939, 1945, 1938, 1938, 1940, 1956, 1933, 1947, 1946, 1946, 1939, 1966, 1939, 1944, 1951, 1944, 1948, 1960, 1947, 1942, 1952, 1948, 1966, 1967, 1973, 1960, 1964, 1971, 1971, 1970, 1961, 1966, 1959, 1960, 1944, 1966, 1953, 1976, 1970, 1973, 1972, 1970, 1957, 1967, 1977, 1985, 1967, 1975, 1969, 1964, 1982, 1982, 1996, 1989, 1983, 1969, 1984, 1976, 1983, 2002, 1989, 1982, 1982, 1967, 1982, 1992, 1992, 1984, 1992, 1986, 1964, 1960, 1964, 1970, 1968, 1962, 1978, 1970, 1975, 1956, 1989, 1974, 1979, 1954, 1963, 1972, 1971, 1972, 1980, 1973, 1970, 1968, 1977, 1978, 1985, 1991, 1972, 1979, 1955, 1983, 1983, 1981, 1970, 1963, 1974, 1955, 1966, 1967, 1957, 1957, 1963, 1976, 1935, 1988, 1960, 1958, 1992],
      "WindowCenter": [720.0, 719.0, 718.0, 717.0, 718.0, 717.0, 716.0, 717.0, 717.0, 718.0, 718.0, 718.0, 718.0, 718.0, 718.0, 718.0, 718.0, 718.0, 719.0, 719.0, 718.0, 719.0, 719.0, 719.0, 719.0, 719.0, 719.0, 718.0, 718.0, 718.0, 719.0, 720.0, 720.0, 720.0, 719.0, 719.0, 719.0, 719.0, 720.0, 720.0, 720.0, 720.0, 719.0, 718.0, 719.0, 718.0, 718.0, 718.0, 717.0, 717.0, 716.0, 716.0, 716.0, 716.0, 716.0, 716.0, 716.0, 715.0, 716.0, 715.0, 716.0, 717.0, 717.0, 716.0, 717.0, 716.0, 716.0, 716.0, 716.0, 718.0, 719.0, 719.0, 719.0, 719.0, 719.0, 719.0, 719.0, 718.0, 718.0, 718.0, 718.0, 719.0, 720.0, 720.0, 719.0, 718.0, 719.0, 720.0, 720.0, 720.0, 720.0, 720.0, 720.0, 719.0, 720.0, 719.0, 719.0, 719.0, 719.0, 719.0, 718.0, 718.0, 718.0, 718.0, 717.0, 717.0, 717.0, 717.0, 717.0, 718.0, 717.0, 717.0, 717.0, 717.0, 718.0, 719.0, 719.0, 718.0, 718.0, 718.0, 719.0, 719.0, 719.0, 720.0, 720.0, 719.0, 718.0, 718.0, 719.0, 719.0, 720.0, 720.0, 720.0, 720.0, 720.0, 720.0, 720.0, 719.0, 719.0, 719.0, 719.0, 719.0, 719.0, 719.0, 719.0, 718.0, 718.0, 718.0, 718.0, 718.0, 718.0, 719.0, 719.0, 718.0, 719.0, 718.0, 717.0, 718.0, 718.0, 719.0, 719.0, 718.0, 718.0, 718.0],
      "WindowWidth": [1557.0, 1553.0, 1552.0, 1549.0, 1550.0, 1548.0, 1546.0, 1549.0, 1549.0, 1550.0, 1549.0, 1552.0, 1551.0, 1550.0, 1551.0, 1550.0, 1551.0, 1550.0, 1552.0, 1553.0, 1552.0, 1554.0, 1552.0, 1553.0, 1555.0, 1554.0, 1553.0, 1552.0, 1551.0, 1551.0, 1553.0, 1557.0, 1557.0, 1556.0, 1553.0, 1555.0, 1553.0, 1555.0, 1557.0, 1558.0, 1557.0, 1556.0, 1555.0, 1553.0, 1554.0, 1553.0, 1550.0, 1551.0, 1549.0, 1548.0, 1546.0, 1546.0, 1547.0, 1545.0, 1545.0, 1547.0, 1546.0, 1544.0, 1545.0, 1544.0, 1545.0, 1548.0, 1548.0, 1548.0, 1548.0, 1546.0, 1546.0, 1547.0, 1547.0, 1552.0, 1554.0, 1554.0, 1553.0, 1555.0, 1555.0, 1554.0, 1554.0, 1552.0, 1550.0, 1550.0, 1552.0, 1553.0, 1557.0, 1556.0, 1556.0, 1553.0, 1555.0, 1557.0, 1557.0, 1558.0, 1556.0, 1557.0, 1556.0, 1555.0, 1556.0, 1555.0, 1554.0, 1554.0, 1553.0, 1553.0, 1553.0, 1553.0, 1552.0, 1551.0, 1550.0, 1550.0, 1550.0, 1548.0, 1548.0, 1551.0, 1550.0, 1550.0, 1550.0, 1550.0, 1552.0, 1553.0, 1553.0, 1552.0, 1551.0, 1552.0, 1553.0, 1553.0, 1553.0, 1557.0, 1558.0, 1555.0, 1552.0, 1551.0, 1553.0, 1554.0, 1556.0, 1557.0, 1558.0, 1558.0, 1558.0, 1558.0, 1556.0, 1555.0, 1554.0, 1555.0, 1555.0, 1554.0, 1554.0, 1554.0, 1553.0, 1551.0, 1552.0, 1552.0, 1551.0, 1551.0, 1551.0, 1554.0, 1553.0, 1552.0, 1553.0, 1552.0, 1549.0, 1550.0, 1552.0, 1553.0, 1553.0, 1551.0, 1552.0, 1552.0]
    },
    "slices": {}
  }
}