{
  "AcquisitionMatrixPE": 64,
  "AcquisitionNumber": 1,
  "AcquisitionTime": "09:23:51.965000",
  "BandwidthPerPixelPhaseEncode": 33.967,
  "BaseResolution": 64,
  "CoilCombinationMethod": "Sum of Squares",
  "CoilString": "C:HEA;HEP",
  "ConversionSoftware": "dcm2niix",
  "ConversionSoftwareVersion": "v1.0.20220720",
  "DerivedVendorReportedEchoSpacing": 0.000460005,
  "DeviceSerialNumber": "35193",
  "DwellTime": 3.1e-06,
  "EchoTime": 0.03,
  "EffectiveEchoSpacing": 0.000460005,
  "FlipAngle": 90,
  "HeudiconvVersion": "1.1.6",
  "ImageOrientationPatientDICOM": [1, 0, 0, 0, 1, 0],
  "ImageOrientationText": "Tra",
  "ImageType": [
    "ORIGINAL",
    "PRIMARY",
    "M",
    "ND",
    "MOSAIC"
],
  "ImagingFrequency": 123.254,
  "InPlanePhaseEncodingDirectionDICOM": "COL",
  "InstitutionAddress": "Xinjiekouwai Street No 19,Beijing,Haidian District,CN,100875",
  "InstitutionName": "BNU MRI Center",
  "InstitutionalDepartmentName": "Department",
  "MRAcquisitionType": "2D",
  "MagneticFieldStrength": 3,
  "Manufacturer": "Siemens",
  "ManufacturersModelName": "TrioTim",
  "MatrixCoilMode": "SENSE",
  "Modality": "MR",
  "NonlinearGradientCorrection": false,
  "PartialFourier": 1,
  "PatientPosition": "HFS",
  "PercentPhaseFOV": 100,
  "PercentSampling": 100,
  "PhaseEncodingDirection": "j-",
  "PhaseEncodingSteps": 64,
  "PhaseResolution": 1,
  "PixelBandwidth": 2520,
  "ProcedureStepDescription": "BNU_cst_2015^Guo.TaoMei",
  "ProtocolName": "ge_func_3x3x4_164",
  "PulseSequenceDetails": "%SiemensSeq%\\ep2d_bold",
  "ReceiveCoilName": "HeadMatrix",
  "ReconMatrixPE": 64,
  "RepetitionTime": 2,
  "SAR": 0.178003,
  "ScanOptions": "FS",
  "ScanningSequence": "EP",
  "SequenceName": "*epfid2d1_64",
  "SequenceVariant": "SK",
  "SeriesDescription": "ge_func_3x3x4_164",
  "SeriesNumber": 4,
  "ShimSetting": [-4532, -19408, -9767, 873, -145, -678, 43, 51],
  "SliceThickness": 4,
  "SliceTiming": [0, 1.0325, 0.06, 1.095, 0.12, 1.155, 0.1825, 1.215, 0.2425, 1.2775, 0.3025, 1.3375, 0.365, 1.3975, 0.425, 1.46, 0.485, 1.52, 0.5475, 1.58, 0.6075, 1.6425, 0.6675, 1.7025, 0.73, 1.7625, 0.79, 1.825, 0.85, 1.885, 0.9125, 1.945, 0.9725],
  "SoftwareVersions": "syngo MR B17",
  "SpacingBetweenSlices": 4.6,
  "StationName": "MRC35193",
  "TaskName": "CognitiveControl",
  "TotalReadoutTime": 0.0289803,
  "TxRefAmp": 362.818,
  "dcmmeta_affine": [
    [-3.125, 0.0, 0.0, 100.67469787597656],
    [0.0, 3.125, 0.0, -90.8027114868164],
    [0.0, 0.0, 4.599999904632568, -72.92530059814453],
    [0.0, 0.0, 0.0, 1.0]
],
  "dcmmeta_reorient_transform": [
    [0.0, -1.0, 0.0, 63.0],
    [1.0, 0.0, 0.0, 0.0],
    [0.0, 0.0, 1.0, 0.0],
    [0.0, 0.0, 0.0, 1.0]
],
  "dcmmeta_shape": [64, 64, 33, 164],
  "dcmmeta_slice_dim": 2,
  "dcmmeta_version": 0.6,
  "global": {
    "const": {
      "AcquisitionMatrix": [64, 0, 0, 64],
      "AngioFlag": "N",
      "BitsAllocated": 16,
      "BitsStored": 12,
      "Columns": 384,
      "EchoNumbers": 1,
      "EchoTime": 30.0,
      "EchoTrainLength": 1,
      "FlipAngle": 90.0,
      "HighBit": 11,
      "ImageOrientationPatient": [1.0, 0.0, 0.0, 0.0, 1.0, 0.0],
      "ImagePositionPatient": [-600.67469877005, -606.07228899002, -72.925300598145],
      "ImageType": [
        "ORIGINAL",
        "PRIMARY",
        "M",
        "ND",
        "MOSAIC"
],
      "ImagedNucleus": "1H",
      "ImagingFrequency": 123.253843,
      "InPlanePhaseEncodingDirection": "COL",
      "MRAcquisitionType": "2D",
      "MagneticFieldStrength": 3.0,
      "Manufacturer": "SIEMENS",
      "ManufacturerModelName": "TrioTim",
      "Modality": "MR",
      "NumberOfAverages": 1.0,
      "NumberOfPhaseEncodingSteps": 64,
      "PercentPhaseFieldOfView": 100.0,
      "PercentSampling": 100.0,
      "PerformedProcedureStepStartTime": "090625.750000",
      "PhotometricInterpretation": "MONOCHROME2",
      "PixelBandwidth": 2520.0,
      "PixelRepresentation": 0,
      "PixelSpacing": [3.125, 3.125],
      "ProtocolName": "ge_func_3x3x4_164",
      "RepetitionTime": 2000.0,
      "Rows": 384,
      "SAR": 0.17800262803473,
      "SamplesPerPixel": 1,
      "ScanOptions": "FS",
      "ScanningSequence": "EP",
      "SequenceName": "*epfid2d1_64",
      "SequenceVariant": "SK",
      "SeriesDescription": "ge_func_3x3x4_164",
      "SeriesNumber": 4,
      "SeriesTime": "092356.578000",
      "SliceLocation": -72.925300598145,
      "SliceThickness": 4.0,
      "SmallestImagePixelValue": 0,
      "SoftwareVersions": "syngo MR B17",
      "SpacingBetweenSlices": 4.5999999046326,
      "SpecificCharacterSet": "ISO_IR 100",
      "StudyID": "1",
      "StudyTime": "090625.625000",
      "TransmitCoilName": "Body",
      "VariableFlipAngleFlag": "N",
      "WindowCenterWidthExplanation": "Algo1",
      "dBdt": 0.0},
    "slices": {}
  },
  "time": {
    "samples": {
      "AcquisitionNumber": [1, 2, 3, 4, 5, 6, 7, 8, 9, 10, 11, 12, 13, 14, 15, 16, 17, 18, 19, 20, 21, 22, 23, 24, 25, 26, 27, 28, 29, 30, 31, 32, 33, 34, 35, 36, 37, 38, 39, 40, 41, 42, 43, 44, 45, 46, 47, 48, 49, 50, 51, 52, 53, 54, 55, 56, 57, 58, 59, 60, 61, 62, 63, 64, 65, 66, 67, 68, 69, 70, 71, 72, 73, 74, 75, 76, 77, 78, 79, 80, 81, 82, 83, 84, 85, 86, 87, 88, 89, 90, 91, 92, 93, 94, 95, 96, 97, 98, 99, 100, 101, 102, 103, 104, 105, 106, 107, 108, 109, 110, 111, 112, 113, 114, 115, 116, 117, 118, 119, 120, 121, 122, 123, 124, 125, 126, 127, 128, 129, 130, 131, 132, 133, 134, 135, 136, 137, 138, 139, 140, 141, 142, 143, 144, 145, 146, 147, 148, 149, 150, 151, 152, 153, 154, 155, 156, 157, 158, 159, 160, 161, 162, 163, 164],
      "AcquisitionTime": ["092351.965000", "092353.972500", "092355.980000", "092357.987500", "092359.995000", "092402.005000", "092404.012500", "092406.020000", "092408.027500", "092410.037500", "092412.045000", "092414.052500", "092416.060000", "092418.067500", "092420.077500", "092422.085000", "092424.092500", "092426.100000", "092428.107500", "092430.117500", "092432.125000", "092434.132500", "092436.140000", "092438.147500", "092440.157500", "092442.165000", "092444.172500", "092446.180000", "092448.190000", "092450.197500", "092452.205000", "092454.212500", "092456.220000", "092458.230000", "092500.237500", "092502.245000", "092504.252500", "092506.260000", "092508.270000", "092510.277500", "092512.285000", "092514.292500", "092516.302500", "092518.310000", "092520.317500", "092522.325000", "092524.332500", "092526.342500", "092528.350000", "092530.357500", "092532.365000", "092534.372500", "092536.382500", "092538.390000", "092540.397500", "092542.405000", "092544.415000", "092546.422500", "092548.430000", "092550.437500", "092552.445000", "092554.455000", "092556.462500", "092558.470000", "092600.477500", "092602.485000", "092604.495000", "092606.502500", "092608.510000", "092610.517500", "092612.525000", "092614.535000", "092616.542500", "092618.550000", "092620.557500", "092622.567500", "092624.575000", "092626.582500", "092628.590000", "092630.597500", "092632.607500", "092634.615000", "092636.622500", "092638.630000", "092640.637500", "092642.647500", "092644.655000", "092646.662500", "092648.670000", "092650.680000", "092652.687500", "092654.695000", "092656.702500", "092658.710000", "092700.720000", "092702.727500", "092704.735000", "092706.742500", "092708.750000", "092710.760000", "092712.767500", "092714.775000", "092716.782500", "092718.792500", "092720.800000", "092722.807500", "092724.815000", "092726.822500", "092728.832500", "092730.840000", "092732.847500", "092734.855000", "092736.862500", "092738.872500", "092740.880000", "092742.887500", "092744.895000", "092746.902500", "092748.912500", "092750.920000", "092752.927500", "092754.935000", "092756.945000", "092758.952500", "092800.960000", "092802.967500", "092804.975000", "092806.985000", "092808.992500", "092811.000000", "092813.007500", "092815.015000", "092817.025000", "092819.032500", "092821.040000", "092823.047500", "092825.057500", "092827.065000", "092829.072500", "092831.080000", "092833.087500", "092835.097500", "092837.105000", "092839.112500", "092841.120000", "092843.127500", "092845.137500", "092847.145000", "092849.152500", "092851.160000", "092853.170000", "092855.177500", "092857.185000", "092859.192500", "092901.200000", "092903.210000", "092905.217500", "092907.225000", "092909.232500", "092911.240000", "092913.250000", "092915.257500", "092917.265000", "092919.272500"],
      "ContentTime": ["092356.593000", "092436.578000", "092436.578000", "092436.593000", "092436.593000", "092436.593000", "092436.593000", "092436.593000", "092436.609000", "092436.609000", "092436.609000", "092436.625000", "092436.625000", "092436.625000", "092436.625000", "092436.625000", "092436.640000", "092436.640000", "092436.640000", "092436.640000", "092436.640000", "092516.578000", "092516.578000", "092516.593000", "092516.593000", "092516.609000", "092516.609000", "092516.609000", "092516.609000", "092516.609000", "092516.609000", "092516.609000", "092516.609000", "092516.609000", "092516.625000", "092516.625000", "092516.625000", "092516.625000", "092516.625000", "092516.625000", "092516.625000", "092556.578000", "092556.593000", "092556.593000", "092556.593000", "092556.593000", "092556.593000", "092556.593000", "092556.609000", "092556.609000", "092556.609000", "092556.609000", "092556.609000", "092556.609000", "092556.609000", "092556.609000", "092556.625000", "092556.625000", "092556.625000", "092556.625000", "092556.625000", "092636.578000", "092636.578000", "092636.578000", "092636.593000", "092636.593000", "092636.593000", "092636.593000", "092636.593000", "092636.593000", "092636.593000", "092636.609000", "092636.609000", "092636.609000", "092636.609000", "092636.609000", "092636.625000", "092636.625000", "092636.625000", "092636.625000", "092636.625000", "092716.578000", "092716.578000", "092716.578000", "092716.593000", "092716.593000", "092716.593000", "092716.593000", "092716.593000", "092716.609000", "092716.609000", "092716.609000", "092716.609000", "092716.609000", "092716.609000", "092716.625000", "092716.625000", "092716.625000", "092716.625000", "092716.625000", "092716.625000", "092756.578000", "092756.578000", "092756.578000", "092756.593000", "092756.593000", "092756.593000", "092756.593000", "092756.593000", "092756.593000", "092756.593000", "092756.593000", "092756.609000", "092756.609000", "092756.609000", "092756.609000", "092756.609000", "092756.609000", "092756.609000", "092756.609000", "092756.609000", "092836.578000", "092836.578000", "092836.593000", "092836.593000", "092836.593000", "092836.593000", "092836.593000", "092836.593000", "092836.593000", "092836.593000", "092836.609000", "092836.609000", "092836.609000", "092836.609000", "092836.609000", "092836.609000", "092836.625000", "092836.625000", "092836.625000", "092836.625000", "092916.578000", "092916.578000", "092916.578000", "092916.593000", "092916.593000", "092916.593000", "092916.593000", "092916.593000", "092916.593000", "092916.593000", "092916.593000", "092916.609000", "092916.609000", "092916.609000", "092916.609000", "092916.609000", "092916.609000", "092916.609000", "092916.609000", "092916.625000", "092921.015000", "092921.015000", "092921.015000"],
      "InstanceCreationTime": ["092356.593000", "092436.578000", "092436.578000", "092436.593000", "092436.593000", "092436.593000", "092436.593000", "092436.593000", "092436.609000", "092436.609000", "092436.609000", "092436.625000", "092436.625000", "092436.625000", "092436.625000", "092436.625000", "092436.640000", "092436.640000", "092436.640000", "092436.640000", "092436.640000", "092516.578000", "092516.578000", "092516.593000", "092516.593000", "092516.609000", "092516.609000", "092516.609000", "092516.609000", "092516.609000", "092516.609000", "092516.609000", "092516.609000", "092516.609000", "092516.625000", "092516.625000", "092516.625000", "092516.625000", "092516.625000", "092516.625000", "092516.625000", "092556.578000", "092556.593000", "092556.593000", "092556.593000", "092556.593000", "092556.593000", "092556.593000", "092556.609000", "092556.609000", "092556.609000", "092556.609000", "092556.609000", "092556.609000", "092556.609000", "092556.609000", "092556.625000", "092556.625000", "092556.625000", "092556.625000", "092556.625000", "092636.578000", "092636.578000", "092636.578000", "092636.593000", "092636.593000", "092636.593000", "092636.593000", "092636.593000", "092636.593000", "092636.593000", "092636.609000", "092636.609000", "092636.609000", "092636.609000", "092636.609000", "092636.625000", "092636.625000", "092636.625000", "092636.625000", "092636.625000", "092716.578000", "092716.578000", "092716.578000", "092716.593000", "092716.593000", "092716.593000", "092716.593000", "092716.593000", "092716.609000", "092716.609000", "092716.609000", "092716.609000", "092716.609000", "092716.609000", "092716.625000", "092716.625000", "092716.625000", "092716.625000", "092716.625000", "092716.625000", "092756.578000", "092756.578000", "092756.578000", "092756.593000", "092756.593000", "092756.593000", "092756.593000", "092756.593000", "092756.593000", "092756.593000", "092756.593000", "092756.609000", "092756.609000", "092756.609000", "092756.609000", "092756.609000", "092756.609000", "092756.609000", "092756.609000", "092756.609000", "092836.578000", "092836.578000", "092836.593000", "092836.593000", "092836.593000", "092836.593000", "092836.593000", "092836.593000", "092836.593000", "092836.593000", "092836.609000", "092836.609000", "092836.609000", "092836.609000", "092836.609000", "092836.609000", "092836.625000", "092836.625000", "092836.625000", "092836.625000", "092916.578000", "092916.578000", "092916.578000", "092916.593000", "092916.593000", "092916.593000", "092916.593000", "092916.593000", "092916.593000", "092916.593000", "092916.593000", "092916.609000", "092916.609000", "092916.609000", "092916.609000", "092916.609000", "092916.609000", "092916.609000", "092916.609000", "092916.625000", "092921.015000", "092921.015000", "092921.015000"],
      "InstanceNumber": [1, 2, 3, 4, 5, 6, 7, 8, 9, 10, 11, 12, 13, 14, 15, 16, 17, 18, 19, 20, 21, 22, 23, 24, 25, 26, 27, 28, 29, 30, 31, 32, 33, 34, 35, 36, 37, 38, 39, 40, 41, 42, 43, 44, 45, 46, 47, 48, 49, 50, 51, 52, 53, 54, 55, 56, 57, 58, 59, 60, 61, 62, 63, 64, 65, 66, 67, 68, 69, 70, 71, 72, 73, 74, 75, 76, 77, 78, 79, 80, 81, 82, 83, 84, 85, 86, 87, 88, 89, 90, 91, 92, 93, 94, 95, 96, 97, 98, 99, 100, 101, 102, 103, 104, 105, 106, 107, 108, 109, 110, 111, 112, 113, 114, 115, 116, 117, 118, 119, 120, 121, 122, 123, 124, 125, 126, 127, 128, 129, 130, 131, 132, 133, 134, 135, 136, 137, 138, 139, 140, 141, 142, 143, 144, 145, 146, 147, 148, 149, 150, 151, 152, 153, 154, 155, 156, 157, 158, 159, 160, 161, 162, 163, 164],
      "LargestImagePixelValue": [1622, 1585, 1584, 1592, 1571, 1588, 1549, 1553, 1572, 1549, 1566, 1576, 1570, 1539, 1546, 1550, 1545, 1692, 1546, 1556, 1559, 1565, 1554, 1553, 1566, 1587, 1585, 1562, 1571, 1575, 1561, 1588, 1582, 1636, 1592, 1575, 1592, 1584, 1586, 1591, 1641, 1582, 1581, 1576, 1567, 1558, 1616, 1674, 1650, 1575, 1581, 1574, 1578, 1677, 1594, 1572, 1568, 1606, 1676, 1583, 1625, 1639, 1618, 1655, 1590, 1611, 1621, 1594, 1585, 1692, 1594, 1583, 1591, 1581, 1586, 1608, 1589, 1586, 1622, 1676, 1601, 1574, 1594, 1675, 1567, 1599, 1716, 1604, 1617, 1614, 1602, 1626, 1589, 1595, 1604, 1602, 1593, 1624, 1603, 1624, 1667, 1608, 1596, 1593, 1605, 1592, 1655, 1684, 1614, 1610, 1608, 1616, 1608, 1690, 1643, 1591, 1609, 1620, 1635, 1616, 1623, 1614, 1611, 1639, 1625, 1617, 1653, 1623, 1633, 1636, 1606, 1636, 1620, 1634, 1624, 1608, 1621, 1638, 1619, 1628, 1627, 1649, 1620, 1642, 1622, 1610, 1622, 1626, 1619, 1626, 1637, 1617, 1641, 1631, 1629, 1625, 1645, 1626, 1605, 1683, 1613, 1621, 1605, 1620],
      "WindowCenter": [714.0, 713.0, 715.0, 715.0, 715.0, 714.0, 712.0, 712.0, 712.0, 711.0, 713.0, 713.0, 713.0, 713.0, 713.0, 713.0, 713.0, 714.0, 713.0, 713.0, 713.0, 714.0, 714.0, 714.0, 715.0, 715.0, 715.0, 714.0, 715.0, 715.0, 715.0, 714.0, 714.0, 714.0, 715.0, 715.0, 716.0, 715.0, 715.0, 716.0, 716.0, 716.0, 716.0, 715.0, 715.0, 714.0, 715.0, 715.0, 714.0, 714.0, 714.0, 715.0, 715.0, 715.0, 715.0, 715.0, 714.0, 714.0, 715.0, 715.0, 716.0, 715.0, 715.0, 716.0, 716.0, 716.0, 717.0, 717.0, 717.0, 718.0, 717.0, 715.0, 714.0, 713.0, 715.0, 715.0, 716.0, 715.0, 715.0, 715.0, 715.0, 715.0, 714.0, 715.0, 714.0, 715.0, 716.0, 716.0, 716.0, 716.0, 717.0, 718.0, 716.0, 716.0, 715.0, 715.0, 717.0, 718.0, 717.0, 717.0, 716.0, 715.0, 715.0, 714.0, 714.0, 715.0, 715.0, 716.0, 716.0, 717.0, 716.0, 716.0, 716.0, 717.0, 715.0, 715.0, 715.0, 716.0, 718.0, 717.0, 717.0, 717.0, 717.0, 718.0, 717.0, 717.0, 717.0, 718.0, 717.0, 717.0, 718.0, 719.0, 718.0, 716.0, 716.0, 715.0, 716.0, 716.0, 717.0, 718.0, 718.0, 717.0, 719.0, 719.0, 718.0, 716.0, 716.0, 716.0, 716.0, 716.0, 716.0, 715.0, 717.0, 717.0, 717.0, 716.0, 715.0, 715.0, 718.0, 719.0, 717.0, 716.0, 714.0, 713.0],
      "WindowWidth": [1513.0, 1512.0, 1515.0, 1517.0, 1514.0, 1512.0, 1508.0, 1508.0, 1509.0, 1507.0, 1510.0, 1511.0, 1510.0, 1509.0, 1510.0, 1511.0, 1510.0, 1513.0, 1509.0, 1510.0, 1511.0, 1513.0, 1514.0, 1513.0, 1514.0, 1516.0, 1515.0, 1514.0, 1515.0, 1516.0, 1515.0, 1514.0, 1513.0, 1513.0, 1516.0, 1515.0, 1517.0, 1516.0, 1515.0, 1517.0, 1518.0, 1517.0, 1517.0, 1516.0, 1514.0, 1512.0, 1514.0, 1514.0, 1513.0, 1512.0, 1512.0, 1514.0, 1515.0, 1515.0, 1514.0, 1516.0, 1512.0, 1512.0, 1514.0, 1514.0, 1517.0, 1515.0, 1516.0, 1518.0, 1517.0, 1518.0, 1519.0, 1520.0, 1519.0, 1523.0, 1519.0, 1514.0, 1512.0, 1510.0, 1514.0, 1516.0, 1517.0, 1516.0, 1515.0, 1515.0, 1515.0, 1515.0, 1513.0, 1514.0, 1513.0, 1516.0, 1519.0, 1516.0, 1517.0, 1517.0, 1520.0, 1522.0, 1518.0, 1517.0, 1515.0, 1515.0, 1520.0, 1523.0, 1521.0, 1520.0, 1518.0, 1516.0, 1515.0, 1513.0, 1514.0, 1514.0, 1515.0, 1517.0, 1518.0, 1519.0, 1518.0, 1518.0, 1517.0, 1519.0, 1515.0, 1516.0, 1516.0, 1518.0, 1522.0, 1520.0, 1520.0, 1519.0, 1520.0, 1522.0, 1520.0, 1519.0, 1519.0, 1522.0, 1521.0, 1521.0, 1523.0, 1524.0, 1522.0, 1518.0, 1518.0, 1516.0, 1517.0, 1517.0, 1520.0, 1521.0, 1522.0, 1520.0, 1524.0, 1524.0, 1521.0, 1518.0, 1517.0, 1518.0, 1518.0, 1517.0, 1516.0, 1515.0, 1519.0, 1521.0, 1519.0, 1517.0, 1515.0, 1514.0, 1522.0, 1524.0, 1519.0, 1516.0, 1512.0, 1509.0]
    },
    "slices": {}
  }
}