{
  "AcquisitionMatrixPE": 64,
  "AcquisitionNumber": 1,
  "AcquisitionTime": "09:30:3.122500",
  "BandwidthPerPixelPhaseEncode": 33.967,
  "BaseResolution": 64,
  "CoilCombinationMethod": "Sum of Squares",
  "CoilString": "C:HEA;HEP",
  "ConversionSoftware": "dcm2niix",
  "ConversionSoftwareVersion": "v1.0.20220720",
  "DerivedVendorReportedEchoSpacing": 0.000460005,
  "DeviceSerialNumber": "35193",
  "DwellTime": 3.1e-06,
  "EchoTime": 0.03,
  "EffectiveEchoSpacing": 0.000460005,
  "FlipAngle": 90,
  "HeudiconvVersion": "1.1.6",
  "ImageOrientationPatientDICOM": [1, 0, 0, 0, 1, 0],
  "ImageOrientationText": "Tra",
  "ImageType": [
    "ORIGINAL",
    "PRIMARY",
    "M",
    "ND",
    "MOSAIC"
],
  "ImagingFrequency": 123.254,
  "InPlanePhaseEncodingDirectionDICOM": "COL",
  "InstitutionAddress": "Xinjiekouwai Street No 19,Beijing,Haidian District,CN,100875",
  "InstitutionName": "BNU MRI Center",
  "InstitutionalDepartmentName": "Department",
  "MRAcquisitionType": "2D",
  "MagneticFieldStrength": 3,
  "Manufacturer": "Siemens",
  "ManufacturersModelName": "TrioTim",
  "MatrixCoilMode": "SENSE",
  "Modality": "MR",
  "NonlinearGradientCorrection": false,
  "PartialFourier": 1,
  "PatientPosition": "HFS",
  "PercentPhaseFOV": 100,
  "PercentSampling": 100,
  "PhaseEncodingDirection": "j-",
  "PhaseEncodingSteps": 64,
  "PhaseResolution": 1,
  "PixelBandwidth": 2520,
  "ProcedureStepDescription": "BNU_cst_2015^Guo.TaoMei",
  "ProtocolName": "ge_func_3x3x4_164",
  "PulseSequenceDetails": "%SiemensSeq%\\ep2d_bold",
  "ReceiveCoilName": "HeadMatrix",
  "ReconMatrixPE": 64,
  "RepetitionTime": 2,
  "SAR": 0.178003,
  "ScanOptions": "FS",
  "ScanningSequence": "EP",
  "SequenceName": "*epfid2d1_64",
  "SequenceVariant": "SK",
  "SeriesDescription": "ge_func_3x3x4_164",
  "SeriesNumber": 5,
  "ShimSetting": [-4532, -19408, -9767, 873, -145, -678, 43, 51],
  "SliceThickness": 4,
  "SliceTiming": [0, 1.035, 0.06, 1.095, 0.1225, 1.155, 0.1825, 1.2175, 0.2425, 1.2775, 0.305, 1.3375, 0.365, 1.4, 0.425, 1.46, 0.4875, 1.52, 0.5475, 1.5825, 0.6075, 1.6425, 0.67, 1.7025, 0.73, 1.765, 0.79, 1.825, 0.8525, 1.885, 0.9125, 1.9475, 0.9725],
  "SoftwareVersions": "syngo MR B17",
  "SpacingBetweenSlices": 4.6,
  "StationName": "MRC35193",
  "TaskName": "CognitiveControl",
  "TotalReadoutTime": 0.0289803,
  "TxRefAmp": 362.818,
  "dcmmeta_affine": [
    [-3.125, 0.0, 0.0, 100.67469787597656],
    [0.0, 3.125, 0.0, -90.8027114868164],
    [0.0, 0.0, 4.599999904632568, -72.92530059814453],
    [0.0, 0.0, 0.0, 1.0]
],
  "dcmmeta_reorient_transform": [
    [0.0, -1.0, 0.0, 63.0],
    [1.0, 0.0, 0.0, 0.0],
    [0.0, 0.0, 1.0, 0.0],
    [0.0, 0.0, 0.0, 1.0]
],
  "dcmmeta_shape": [64, 64, 33, 164],
  "dcmmeta_slice_dim": 2,
  "dcmmeta_version": 0.6,
  "global": {
    "const": {
      "AcquisitionMatrix": [64, 0, 0, 64],
      "AngioFlag": "N",
      "BitsAllocated": 16,
      "BitsStored": 12,
      "Columns": 384,
      "EchoNumbers": 1,
      "EchoTime": 30.0,
      "EchoTrainLength": 1,
      "FlipAngle": 90.0,
      "HighBit": 11,
      "ImageOrientationPatient": [1.0, 0.0, 0.0, 0.0, 1.0, 0.0],
      "ImagePositionPatient": [-600.67469877005, -606.07228899002, -72.925300598145],
      "ImageType": [
        "ORIGINAL",
        "PRIMARY",
        "M",
        "ND",
        "MOSAIC"
],
      "ImagedNucleus": "1H",
      "ImagingFrequency": 123.253842,
      "InPlanePhaseEncodingDirection": "COL",
      "MRAcquisitionType": "2D",
      "MagneticFieldStrength": 3.0,
      "Manufacturer": "SIEMENS",
      "ManufacturerModelName": "TrioTim",
      "Modality": "MR",
      "NumberOfAverages": 1.0,
      "NumberOfPhaseEncodingSteps": 64,
      "PercentPhaseFieldOfView": 100.0,
      "PercentSampling": 100.0,
      "PerformedProcedureStepStartTime": "090625.750000",
      "PhotometricInterpretation": "MONOCHROME2",
      "PixelBandwidth": 2520.0,
      "PixelRepresentation": 0,
      "PixelSpacing": [3.125, 3.125],
      "ProtocolName": "ge_func_3x3x4_164",
      "RepetitionTime": 2000.0,
      "Rows": 384,
      "SAR": 0.17800262803473,
      "SamplesPerPixel": 1,
      "ScanOptions": "FS",
      "ScanningSequence": "EP",
      "SequenceName": "*epfid2d1_64",
      "SequenceVariant": "SK",
      "SeriesDescription": "ge_func_3x3x4_164",
      "SeriesNumber": 5,
      "SeriesTime": "093056.609000",
      "SliceLocation": -72.925300598145,
      "SliceThickness": 4.0,
      "SmallestImagePixelValue": 0,
      "SoftwareVersions": "syngo MR B17",
      "SpacingBetweenSlices": 4.5999999046326,
      "SpecificCharacterSet": "ISO_IR 100",
      "StudyID": "1",
      "StudyTime": "090625.625000",
      "TransmitCoilName": "Body",
      "VariableFlipAngleFlag": "N",
      "WindowCenterWidthExplanation": "Algo1",
      "dBdt": 0.0},
    "slices": {}
  },
  "time": {
    "samples": {
      "AcquisitionNumber": [1, 2, 3, 4, 5, 6, 7, 8, 9, 10, 11, 12, 13, 14, 15, 16, 17, 18, 19, 20, 21, 22, 23, 24, 25, 26, 27, 28, 29, 30, 31, 32, 33, 34, 35, 36, 37, 38, 39, 40, 41, 42, 43, 44, 45, 46, 47, 48, 49, 50, 51, 52, 53, 54, 55, 56, 57, 58, 59, 60, 61, 62, 63, 64, 65, 66, 67, 68, 69, 70, 71, 72, 73, 74, 75, 76, 77, 78, 79, 80, 81, 82, 83, 84, 85, 86, 87, 88, 89, 90, 91, 92, 93, 94, 95, 96, 97, 98, 99, 100, 101, 102, 103, 104, 105, 106, 107, 108, 109, 110, 111, 112, 113, 114, 115, 116, 117, 118, 119, 120, 121, 122, 123, 124, 125, 126, 127, 128, 129, 130, 131, 132, 133, 134, 135, 136, 137, 138, 139, 140, 141, 142, 143, 144, 145, 146, 147, 148, 149, 150, 151, 152, 153, 154, 155, 156, 157, 158, 159, 160, 161, 162, 163, 164],
      "AcquisitionTime": ["093003.122500", "093005.130000", "093007.137500", "093009.147500", "093011.155000", "093013.162500", "093015.170000", "093017.177500", "093019.187500", "093021.195000", "093023.202500", "093025.210000", "093027.217500", "093029.227500", "093031.235000", "093033.242500", "093035.250000", "093037.257500", "093039.267500", "093041.275000", "093043.282500", "093045.290000", "093047.300000", "093049.307500", "093051.315000", "093053.322500", "093055.330000", "093057.340000", "093059.347500", "093101.355000", "093103.362500", "093105.370000", "093107.380000", "093109.387500", "093111.395000", "093113.402500", "093115.412500", "093117.420000", "093119.427500", "093121.435000", "093123.442500", "093125.452500", "093127.460000", "093129.467500", "093131.475000", "093133.482500", "093135.492500", "093137.500000", "093139.507500", "093141.515000", "093143.525000", "093145.532500", "093147.540000", "093149.547500", "093151.555000", "093153.565000", "093155.572500", "093157.580000", "093159.587500", "093201.595000", "093203.605000", "093205.612500", "093207.620000", "093209.627500", "093211.635000", "093213.645000", "093215.652500", "093217.660000", "093219.667500", "093221.677500", "093223.685000", "093225.692500", "093227.700000", "093229.707500", "093231.717500", "093233.725000", "093235.732500", "093237.740000", "093239.747500", "093241.757500", "093243.765000", "093245.772500", "093247.780000", "093249.790000", "093251.797500", "093253.805000", "093255.812500", "093257.820000", "093259.830000", "093301.837500", "093303.845000", "093305.852500", "093307.860000", "093309.870000", "093311.877500", "093313.885000", "093315.892500", "093317.902500", "093319.910000", "093321.917500", "093323.925000", "093325.932500", "093327.942500", "093329.950000", "093331.957500", "093333.965000", "093335.972500", "093337.982500", "093339.990000", "093341.997500", "093344.005000", "093346.012500", "093348.022500", "093350.030000", "093352.037500", "093354.045000", "093356.055000", "093358.062500", "093400.070000", "093402.077500", "093404.085000", "093406.095000", "093408.102500", "093410.110000", "093412.117500", "093414.125000", "093416.135000", "093418.142500", "093420.150000", "093422.157500", "093424.167500", "093426.175000", "093428.182500", "093430.190000", "093432.197500", "093434.207500", "093436.215000", "093438.222500", "093440.230000", "093442.237500", "093444.247500", "093446.255000", "093448.262500", "093450.270000", "093452.280000", "093454.287500", "093456.295000", "093458.302500", "093500.310000", "093502.320000", "093504.327500", "093506.335000", "093508.342500", "093510.350000", "093512.360000", "093514.367500", "093516.375000", "093518.382500", "093520.392500", "093522.400000", "093524.407500", "093526.415000", "093528.422500", "093530.432500"],
      "ContentTime": ["093056.625000", "093056.625000", "093056.625000", "093056.625000", "093056.625000", "093056.640000", "093056.640000", "093056.640000", "093056.640000", "093056.640000", "093056.656000", "093056.656000", "093056.656000", "093056.656000", "093056.671000", "093056.671000", "093056.671000", "093056.671000", "093056.671000", "093056.687000", "093056.687000", "093056.687000", "093056.687000", "093056.687000", "093056.687000", "093136.609000", "093136.609000", "093136.609000", "093136.625000", "093136.625000", "093136.625000", "093136.625000", "093136.625000", "093136.640000", "093136.640000", "093136.656000", "093136.656000", "093136.656000", "093136.656000", "093136.656000", "093136.671000", "093136.671000", "093136.671000", "093136.671000", "093136.671000", "093216.609000", "093216.609000", "093216.625000", "093216.625000", "093216.625000", "093216.625000", "093216.625000", "093216.625000", "093216.640000", "093216.640000", "093216.640000", "093216.640000", "093216.640000", "093216.640000", "093216.640000", "093216.640000", "093216.656000", "093216.656000", "093216.656000", "093216.656000", "093256.609000", "093256.609000", "093256.609000", "093256.625000", "093256.640000", "093256.640000", "093256.640000", "093256.640000", "093256.640000", "093256.640000", "093256.640000", "093256.640000", "093256.656000", "093256.656000", "093256.656000", "093256.656000", "093256.656000", "093256.656000", "093256.656000", "093256.656000", "093316.609000", "093316.609000", "093316.609000", "093316.625000", "093316.625000", "093316.625000", "093316.625000", "093316.625000", "093316.625000", "093316.625000", "093356.609000", "093356.625000", "093356.625000", "093356.625000", "093356.625000", "093356.625000", "093356.625000", "093356.625000", "093356.640000", "093356.640000", "093356.640000", "093356.640000", "093356.640000", "093356.640000", "093356.656000", "093356.656000", "093356.656000", "093356.656000", "093356.656000", "093356.656000", "093436.609000", "093436.609000", "093436.625000", "093436.625000", "093436.625000", "093436.625000", "093436.625000", "093436.625000", "093436.625000", "093436.625000", "093436.640000", "093436.640000", "093436.640000", "093436.640000", "093436.640000", "093436.640000", "093436.640000", "093436.640000", "093436.656000", "093436.656000", "093516.609000", "093516.625000", "093516.625000", "093516.625000", "093516.625000", "093516.625000", "093516.625000", "093516.640000", "093516.640000", "093516.640000", "093516.640000", "093516.640000", "093516.640000", "093516.640000", "093516.656000", "093516.656000", "093516.656000", "093516.656000", "093516.656000", "093516.671000", "093532.687000", "093532.687000", "093532.687000", "093532.687000", "093532.703000", "093532.703000", "093532.703000", "093532.703000", "093532.703000"],
      "InstanceCreationTime": ["093056.625000", "093056.625000", "093056.625000", "093056.625000", "093056.625000", "093056.640000", "093056.640000", "093056.640000", "093056.640000", "093056.640000", "093056.656000", "093056.656000", "093056.656000", "093056.656000", "093056.671000", "093056.671000", "093056.671000", "093056.671000", "093056.671000", "093056.687000", "093056.687000", "093056.687000", "093056.687000", "093056.687000", "093056.687000", "093136.609000", "093136.609000", "093136.609000", "093136.625000", "093136.625000", "093136.625000", "093136.625000", "093136.625000", "093136.640000", "093136.640000", "093136.656000", "093136.656000", "093136.656000", "093136.656000", "093136.656000", "093136.671000", "093136.671000", "093136.671000", "093136.671000", "093136.671000", "093216.609000", "093216.609000", "093216.625000", "093216.625000", "093216.625000", "093216.625000", "093216.625000", "093216.625000", "093216.640000", "093216.640000", "093216.640000", "093216.640000", "093216.640000", "093216.640000", "093216.640000", "093216.640000", "093216.656000", "093216.656000", "093216.656000", "093216.656000", "093256.609000", "093256.609000", "093256.609000", "093256.625000", "093256.640000", "093256.640000", "093256.640000", "093256.640000", "093256.640000", "093256.640000", "093256.640000", "093256.640000", "093256.656000", "093256.656000", "093256.656000", "093256.656000", "093256.656000", "093256.656000", "093256.656000", "093256.656000", "093316.609000", "093316.609000", "093316.609000", "093316.625000", "093316.625000", "093316.625000", "093316.625000", "093316.625000", "093316.625000", "093316.625000", "093356.609000", "093356.625000", "093356.625000", "093356.625000", "093356.625000", "093356.625000", "093356.625000", "093356.625000", "093356.640000", "093356.640000", "093356.640000", "093356.640000", "093356.640000", "093356.640000", "093356.656000", "093356.656000", "093356.656000", "093356.656000", "093356.656000", "093356.656000", "093436.609000", "093436.609000", "093436.625000", "093436.625000", "093436.625000", "093436.625000", "093436.625000", "093436.625000", "093436.625000", "093436.625000", "093436.640000", "093436.640000", "093436.640000", "093436.640000", "093436.640000", "093436.640000", "093436.640000", "093436.640000", "093436.656000", "093436.656000", "093516.609000", "093516.625000", "093516.625000", "093516.625000", "093516.625000", "093516.625000", "093516.625000", "093516.640000", "093516.640000", "093516.640000", "093516.640000", "093516.640000", "093516.640000", "093516.640000", "093516.656000", "093516.656000", "093516.656000", "093516.656000", "093516.656000", "093516.671000", "093532.687000", "093532.687000", "093532.687000", "093532.687000", "093532.703000", "093532.703000", "093532.703000", "093532.703000", "093532.703000"],
      "InstanceNumber": [1, 2, 3, 4, 5, 6, 7, 8, 9, 10, 11, 12, 13, 14, 15, 16, 17, 18, 19, 20, 21, 22, 23, 24, 25, 26, 27, 28, 29, 30, 31, 32, 33, 34, 35, 36, 37, 38, 39, 40, 41, 42, 43, 44, 45, 46, 47, 48, 49, 50, 51, 52, 53, 54, 55, 56, 57, 58, 59, 60, 61, 62, 63, 64, 65, 66, 67, 68, 69, 70, 71, 72, 73, 74, 75, 76, 77, 78, 79, 80, 81, 82, 83, 84, 85, 86, 87, 88, 89, 90, 91, 92, 93, 94, 95, 96, 97, 98, 99, 100, 101, 102, 103, 104, 105, 106, 107, 108, 109, 110, 111, 112, 113, 114, 115, 116, 117, 118, 119, 120, 121, 122, 123, 124, 125, 126, 127, 128, 129, 130, 131, 132, 133, 134, 135, 136, 137, 138, 139, 140, 141, 142, 143, 144, 145, 146, 147, 148, 149, 150, 151, 152, 153, 154, 155, 156, 157, 158, 159, 160, 161, 162, 163, 164],
      "LargestImagePixelValue": [1706, 1647, 1612, 1603, 1587, 1622, 1604, 1613, 1625, 1606, 1606, 1629, 1614, 1628, 1624, 1643, 1624, 1716, 1640, 1624, 1608, 1760, 1625, 1629, 1622, 1640, 1638, 1654, 1646, 1645, 1643, 1672, 1644, 1633, 1665, 1643, 1658, 1636, 1652, 1653, 1646, 1648, 1646, 1651, 1651, 1637, 1651, 1651, 1661, 1682, 1643, 1636, 1669, 1630, 1640, 1647, 1641, 1656, 1638, 1645, 1658, 1652, 1638, 1631, 1635, 1649, 1653, 1637, 1668, 1635, 1641, 1648, 1630, 1631, 1664, 1642, 1616, 1639, 1626, 1643, 1647, 1676, 1647, 1650, 1653, 1655, 1636, 1649, 1651, 1651, 1642, 1641, 1664, 1643, 1663, 1644, 1648, 1652, 1651, 1634, 1659, 1639, 1654, 1658, 1645, 1642, 1672, 1655, 1650, 1671, 1646, 1675, 1656, 1655, 1668, 1659, 1646, 1650, 1664, 1637, 1653, 1651, 1660, 1627, 1651, 1640, 1636, 1651, 1638, 1636, 1649, 1654, 1674, 1665, 1633, 1647, 1671, 1662, 1638, 1666, 1644, 1658, 1651, 1658, 1654, 1634, 1692, 1664, 1651, 1654, 1626, 1626, 1653, 1652, 1634, 1667, 1644, 1653, 1613, 1667, 1640, 1652, 1657, 1663],
      "WindowCenter": [721.0, 719.0, 718.0, 716.0, 716.0, 717.0, 719.0, 719.0, 719.0, 719.0, 717.0, 717.0, 717.0, 717.0, 719.0, 720.0, 719.0, 719.0, 717.0, 717.0, 717.0, 720.0, 720.0, 721.0, 721.0, 721.0, 720.0, 721.0, 721.0, 720.0, 721.0, 721.0, 722.0, 722.0, 722.0, 721.0, 719.0, 718.0, 719.0, 718.0, 718.0, 718.0, 719.0, 718.0, 719.0, 719.0, 720.0, 720.0, 720.0, 722.0, 721.0, 722.0, 721.0, 722.0, 722.0, 722.0, 722.0, 723.0, 723.0, 722.0, 722.0, 722.0, 721.0, 721.0, 720.0, 720.0, 720.0, 720.0, 719.0, 720.0, 720.0, 721.0, 722.0, 722.0, 721.0, 721.0, 721.0, 720.0, 719.0, 720.0, 721.0, 721.0, 722.0, 723.0, 723.0, 723.0, 724.0, 723.0, 722.0, 721.0, 720.0, 720.0, 720.0, 723.0, 722.0, 722.0, 721.0, 721.0, 720.0, 719.0, 719.0, 720.0, 720.0, 720.0, 721.0, 722.0, 722.0, 723.0, 724.0, 724.0, 723.0, 722.0, 722.0, 724.0, 725.0, 724.0, 724.0, 724.0, 722.0, 722.0, 722.0, 722.0, 723.0, 724.0, 723.0, 723.0, 723.0, 722.0, 721.0, 720.0, 720.0, 719.0, 720.0, 721.0, 721.0, 722.0, 722.0, 722.0, 722.0, 720.0, 719.0, 720.0, 721.0, 722.0, 723.0, 725.0, 726.0, 726.0, 726.0, 725.0, 723.0, 721.0, 720.0, 719.0, 719.0, 720.0, 720.0, 721.0, 720.0, 721.0, 721.0, 721.0, 720.0, 721.0],
      "WindowWidth": [1529.0, 1525.0, 1522.0, 1518.0, 1518.0, 1520.0, 1523.0, 1525.0, 1525.0, 1523.0, 1520.0, 1519.0, 1519.0, 1520.0, 1526.0, 1527.0, 1525.0, 1524.0, 1520.0, 1519.0, 1521.0, 1527.0, 1528.0, 1530.0, 1530.0, 1529.0, 1527.0, 1530.0, 1529.0, 1527.0, 1531.0, 1531.0, 1532.0, 1533.0, 1533.0, 1528.0, 1525.0, 1523.0, 1524.0, 1523.0, 1522.0, 1523.0, 1525.0, 1523.0, 1524.0, 1525.0, 1526.0, 1527.0, 1528.0, 1531.0, 1531.0, 1532.0, 1531.0, 1532.0, 1534.0, 1531.0, 1532.0, 1535.0, 1534.0, 1532.0, 1532.0, 1532.0, 1531.0, 1530.0, 1526.0, 1528.0, 1527.0, 1527.0, 1526.0, 1527.0, 1527.0, 1530.0, 1532.0, 1531.0, 1531.0, 1530.0, 1530.0, 1527.0, 1525.0, 1526.0, 1531.0, 1530.0, 1532.0, 1534.0, 1535.0, 1535.0, 1537.0, 1535.0, 1531.0, 1529.0, 1527.0, 1526.0, 1527.0, 1534.0, 1533.0, 1531.0, 1531.0, 1530.0, 1527.0, 1525.0, 1525.0, 1526.0, 1526.0, 1525.0, 1529.0, 1531.0, 1533.0, 1534.0, 1537.0, 1537.0, 1534.0, 1533.0, 1532.0, 1536.0, 1538.0, 1537.0, 1537.0, 1536.0, 1531.0, 1532.0, 1531.0, 1531.0, 1535.0, 1536.0, 1535.0, 1533.0, 1535.0, 1533.0, 1530.0, 1527.0, 1526.0, 1525.0, 1528.0, 1530.0, 1530.0, 1532.0, 1532.0, 1532.0, 1532.0, 1528.0, 1525.0, 1527.0, 1529.0, 1533.0, 1535.0, 1538.0, 1542.0, 1541.0, 1541.0, 1540.0, 1534.0, 1529.0, 1527.0, 1524.0, 1525.0, 1527.0, 1528.0, 1529.0, 1528.0, 1529.0, 1528.0, 1528.0, 1527.0, 1529.0]
    },
    "slices": {}
  }
}