{
  "AcquisitionMatrixPE": 64,
  "AcquisitionNumber": 1,
  "AcquisitionTime": "12:33:56.087500",
  "BandwidthPerPixelPhaseEncode": 33.967,
  "BaseResolution": 64,
  "CoilCombinationMethod": "Sum of Squares",
  "CoilString": "C:HEA;HEP",
  "ConversionSoftware": "dcm2niix",
  "ConversionSoftwareVersion": "v1.0.20220720",
  "DerivedVendorReportedEchoSpacing": 0.000460005,
  "DeviceSerialNumber": "35193",
  "DwellTime": 3.1e-06,
  "EchoTime": 0.03,
  "EffectiveEchoSpacing": 0.000460005,
  "FlipAngle": 90,
  "HeudiconvVersion": "1.1.6",
  "ImageOrientationPatientDICOM": [1, 0, 0, 0, 1, 0],
  "ImageOrientationText": "Tra",
  "ImageType": [
    "ORIGINAL",
    "PRIMARY",
    "M",
    "ND",
    "MOSAIC"
],
  "ImagingFrequency": 123.254,
  "InPlanePhaseEncodingDirectionDICOM": "COL",
  "InstitutionAddress": "Xinjiekouwai Street No 19,Beijing,Haidian District,CN,100875",
  "InstitutionName": "BNU MRI Center",
  "InstitutionalDepartmentName": "Department",
  "MRAcquisitionType": "2D",
  "MagneticFieldStrength": 3,
  "Manufacturer": "Siemens",
  "ManufacturersModelName": "TrioTim",
  "MatrixCoilMode": "SENSE",
  "Modality": "MR",
  "NonlinearGradientCorrection": false,
  "PartialFourier": 1,
  "PatientPosition": "HFS",
  "PercentPhaseFOV": 100,
  "PercentSampling": 100,
  "PhaseEncodingDirection": "j-",
  "PhaseEncodingSteps": 64,
  "PhaseResolution": 1,
  "PixelBandwidth": 2520,
  "ProcedureStepDescription": "BNU_cst_2015^Guo.TaoMei",
  "ProtocolName": "ge_func_3x3x4_164",
  "PulseSequenceDetails": "%SiemensSeq%\\ep2d_bold",
  "ReceiveCoilName": "HeadMatrix",
  "ReconMatrixPE": 64,
  "RepetitionTime": 2,
  "SAR": 0.12905,
  "ScanOptions": "FS",
  "ScanningSequence": "EP",
  "SequenceName": "*epfid2d1_64",
  "SequenceVariant": "SK",
  "SeriesDescription": "ge_func_3x3x4_164",
  "SeriesNumber": 3,
  "ShimSetting": [-4467, -19348, -9797, 1165, -137, -487, 265, 34],
  "SliceThickness": 4,
  "SliceTiming": [0, 1.035, 0.0625, 1.095, 0.1225, 1.1575, 0.1825, 1.2175, 0.245, 1.2775, 0.305, 1.34, 0.365, 1.4, 0.4275, 1.46, 0.4875, 1.5225, 0.5475, 1.5825, 0.61, 1.6425, 0.67, 1.705, 0.73, 1.765, 0.7925, 1.825, 0.8525, 1.8875, 0.9125, 1.9475, 0.975],
  "SoftwareVersions": "syngo MR B17",
  "SpacingBetweenSlices": 4.6,
  "StationName": "MRC35193",
  "TaskName": "LanguageControl",
  "TotalReadoutTime": 0.0289803,
  "TxRefAmp": 355.169,
  "dcmmeta_affine": [
    [-3.125, 0.0, 0.0, 96.62650299072266],
    [0.0, 3.125, 0.0, -87.42921447753906],
    [0.0, 0.0, 4.599999904632568, -74.94939422607422],
    [0.0, 0.0, 0.0, 1.0]
],
  "dcmmeta_reorient_transform": [
    [0.0, -1.0, 0.0, 63.0],
    [1.0, 0.0, 0.0, 0.0],
    [0.0, 0.0, 1.0, 0.0],
    [0.0, 0.0, 0.0, 1.0]
],
  "dcmmeta_shape": [64, 64, 33, 164],
  "dcmmeta_slice_dim": 2,
  "dcmmeta_version": 0.6,
  "global": {
    "const": {
      "AcquisitionMatrix": [64, 0, 0, 64],
      "AngioFlag": "N",
      "BitsAllocated": 16,
      "BitsStored": 12,
      "Columns": 384,
      "EchoNumbers": 1,
      "EchoTime": 30.0,
      "EchoTrainLength": 1,
      "FlipAngle": 90.0,
      "HighBit": 11,
      "ImageOrientationPatient": [1.0, 0.0, 0.0, 0.0, 1.0, 0.0],
      "ImagePositionPatient": [-596.62650609016, -609.44578266144, -74.949394226074],
      "ImageType": [
        "ORIGINAL",
        "PRIMARY",
        "M",
        "ND",
        "MOSAIC"
],
      "ImagedNucleus": "1H",
      "ImagingFrequency": 123.253705,
      "InPlanePhaseEncodingDirection": "COL",
      "MRAcquisitionType": "2D",
      "MagneticFieldStrength": 3.0,
      "Manufacturer": "SIEMENS",
      "ManufacturerModelName": "TrioTim",
      "Modality": "MR",
      "NumberOfAverages": 1.0,
      "NumberOfPhaseEncodingSteps": 64,
      "PercentPhaseFieldOfView": 100.0,
      "PercentSampling": 100.0,
      "PerformedProcedureStepStartTime": "122508.734000",
      "PhotometricInterpretation": "MONOCHROME2",
      "PixelBandwidth": 2520.0,
      "PixelRepresentation": 0,
      "PixelSpacing": [3.125, 3.125],
      "ProtocolName": "ge_func_3x3x4_164",
      "RepetitionTime": 2000.0,
      "Rows": 384,
      "SAR": 0.1290502985075,
      "SamplesPerPixel": 1,
      "ScanOptions": "FS",
      "ScanningSequence": "EP",
      "SequenceName": "*epfid2d1_64",
      "SequenceVariant": "SK",
      "SeriesDescription": "ge_func_3x3x4_164",
      "SeriesNumber": 3,
      "SeriesTime": "123440.515000",
      "SliceLocation": -74.949394226074,
      "SliceThickness": 4.0,
      "SmallestImagePixelValue": 0,
      "SoftwareVersions": "syngo MR B17",
      "SpacingBetweenSlices": 4.5999999046326,
      "SpecificCharacterSet": "ISO_IR 100",
      "StudyID": "1",
      "StudyTime": "122507.890000",
      "TransmitCoilName": "Body",
      "VariableFlipAngleFlag": "N",
      "WindowCenterWidthExplanation": "Algo1",
      "dBdt": 0.0},
    "slices": {}
  },
  "time": {
    "samples": {
      "AcquisitionNumber": [1, 2, 3, 4, 5, 6, 7, 8, 9, 10, 11, 12, 13, 14, 15, 16, 17, 18, 19, 20, 21, 22, 23, 24, 25, 26, 27, 28, 29, 30, 31, 32, 33, 34, 35, 36, 37, 38, 39, 40, 41, 42, 43, 44, 45, 46, 47, 48, 49, 50, 51, 52, 53, 54, 55, 56, 57, 58, 59, 60, 61, 62, 63, 64, 65, 66, 67, 68, 69, 70, 71, 72, 73, 74, 75, 76, 77, 78, 79, 80, 81, 82, 83, 84, 85, 86, 87, 88, 89, 90, 91, 92, 93, 94, 95, 96, 97, 98, 99, 100, 101, 102, 103, 104, 105, 106, 107, 108, 109, 110, 111, 112, 113, 114, 115, 116, 117, 118, 119, 120, 121, 122, 123, 124, 125, 126, 127, 128, 129, 130, 131, 132, 133, 134, 135, 136, 137, 138, 139, 140, 141, 142, 143, 144, 145, 146, 147, 148, 149, 150, 151, 152, 153, 154, 155, 156, 157, 158, 159, 160, 161, 162, 163, 164],
      "AcquisitionTime": ["123356.087500", "123358.097500", "123400.105000", "123402.112500", "123404.120000", "123406.127500", "123408.137500", "123410.145000", "123412.152500", "123414.160000", "123416.167500", "123418.177500", "123420.185000", "123422.192500", "123424.200000", "123426.210000", "123428.217500", "123430.225000", "123432.232500", "123434.240000", "123436.250000", "123438.257500", "123440.265000", "123442.272500", "123444.280000", "123446.290000", "123448.297500", "123450.305000", "123452.312500", "123454.322500", "123456.330000", "123458.337500", "123500.345000", "123502.352500", "123504.362500", "123506.370000", "123508.377500", "123510.385000", "123512.392500", "123514.402500", "123516.410000", "123518.417500", "123520.425000", "123522.432500", "123524.442500", "123526.450000", "123528.457500", "123530.465000", "123532.475000", "123534.482500", "123536.490000", "123538.497500", "123540.505000", "123542.515000", "123544.522500", "123546.530000", "123548.537500", "123550.545000", "123552.555000", "123554.562500", "123556.570000", "123558.577500", "123600.587500", "123602.595000", "123604.602500", "123606.610000", "123608.617500", "123610.627500", "123612.635000", "123614.642500", "123616.650000", "123618.657500", "123620.667500", "123622.675000", "123624.682500", "123626.690000", "123628.700000", "123630.707500", "123632.715000", "123634.722500", "123636.730000", "123638.740000", "123640.747500", "123642.755000", "123644.762500", "123646.770000", "123648.780000", "123650.787500", "123652.795000", "123654.802500", "123656.810000", "123658.820000", "123700.827500", "123702.835000", "123704.842500", "123706.852500", "123708.860000", "123710.867500", "123712.875000", "123714.882500", "123716.892500", "123718.900000", "123720.907500", "123722.915000", "123724.922500", "123726.932500", "123728.940000", "123730.947500", "123732.955000", "123734.965000", "123736.972500", "123738.980000", "123740.987500", "123742.995000", "123745.005000", "123747.012500", "123749.020000", "123751.027500", "123753.035000", "123755.045000", "123757.052500", "123759.060000", "123801.067500", "123803.077500", "123805.085000", "123807.092500", "123809.100000", "123811.107500", "123813.117500", "123815.125000", "123817.132500", "123819.140000", "123821.147500", "123823.157500", "123825.165000", "123827.172500", "123829.180000", "123831.187500", "123833.197500", "123835.205000", "123837.212500", "123839.220000", "123841.230000", "123843.237500", "123845.245000", "123847.252500", "123849.260000", "123851.270000", "123853.277500", "123855.285000", "123857.292500", "123859.300000", "123901.310000", "123903.317500", "123905.325000", "123907.332500", "123909.342500", "123911.350000", "123913.357500", "123915.365000", "123917.372500", "123919.382500", "123921.390000", "123923.397500"],
      "ContentTime": ["123440.531000", "123440.531000", "123440.531000", "123440.531000", "123440.531000", "123440.531000", "123440.531000", "123440.546000", "123440.546000", "123440.546000", "123440.562000", "123440.562000", "123440.562000", "123440.562000", "123440.562000", "123440.562000", "123440.562000", "123440.562000", "123440.578000", "123440.578000", "123440.578000", "123520.515000", "123520.515000", "123520.515000", "123520.531000", "123520.531000", "123520.531000", "123520.531000", "123520.531000", "123520.546000", "123520.546000", "123520.546000", "123520.546000", "123520.546000", "123520.546000", "123520.546000", "123520.546000", "123520.562000", "123520.562000", "123520.562000", "123520.562000", "123600.515000", "123600.515000", "123600.515000", "123600.531000", "123600.531000", "123600.531000", "123600.546000", "123600.546000", "123600.546000", "123600.546000", "123600.546000", "123600.546000", "123600.546000", "123600.546000", "123600.562000", "123600.562000", "123600.562000", "123600.562000", "123600.562000", "123600.562000", "123640.515000", "123640.515000", "123640.515000", "123640.531000", "123640.531000", "123640.531000", "123640.531000", "123640.531000", "123640.546000", "123640.546000", "123640.546000", "123640.546000", "123640.546000", "123640.546000", "123640.546000", "123640.546000", "123640.562000", "123640.562000", "123640.562000", "123640.578000", "123720.515000", "123720.531000", "123720.531000", "123720.531000", "123720.546000", "123720.546000", "123720.546000", "123720.546000", "123720.562000", "123720.562000", "123720.562000", "123720.562000", "123720.562000", "123720.562000", "123720.562000", "123720.562000", "123720.578000", "123720.578000", "123720.578000", "123720.578000", "123800.515000", "123800.515000", "123800.515000", "123800.531000", "123800.531000", "123800.531000", "123800.531000", "123800.531000", "123800.531000", "123800.531000", "123800.546000", "123800.546000", "123800.546000", "123800.546000", "123800.546000", "123800.546000", "123800.546000", "123800.546000", "123800.562000", "123800.562000", "123840.515000", "123840.515000", "123840.531000", "123840.531000", "123840.531000", "123840.531000", "123840.546000", "123840.546000", "123840.546000", "123840.546000", "123840.546000", "123840.546000", "123840.546000", "123840.546000", "123840.562000", "123840.562000", "123840.562000", "123840.562000", "123840.562000", "123840.562000", "123920.515000", "123920.515000", "123920.515000", "123920.531000", "123920.531000", "123920.531000", "123920.531000", "123920.531000", "123920.531000", "123920.531000", "123920.546000", "123920.546000", "123920.546000", "123920.546000", "123920.546000", "123920.546000", "123920.546000", "123920.546000", "123920.562000", "123920.562000", "123925.093000", "123925.093000", "123925.093000"],
      "InstanceCreationTime": ["123440.531000", "123440.531000", "123440.531000", "123440.531000", "123440.531000", "123440.531000", "123440.531000", "123440.546000", "123440.546000", "123440.546000", "123440.562000", "123440.562000", "123440.562000", "123440.562000", "123440.562000", "123440.562000", "123440.562000", "123440.562000", "123440.578000", "123440.578000", "123440.578000", "123520.515000", "123520.515000", "123520.515000", "123520.531000", "123520.531000", "123520.531000", "123520.531000", "123520.531000", "123520.546000", "123520.546000", "123520.546000", "123520.546000", "123520.546000", "123520.546000", "123520.546000", "123520.546000", "123520.562000", "123520.562000", "123520.562000", "123520.562000", "123600.515000", "123600.515000", "123600.515000", "123600.531000", "123600.531000", "123600.531000", "123600.546000", "123600.546000", "123600.546000", "123600.546000", "123600.546000", "123600.546000", "123600.546000", "123600.546000", "123600.562000", "123600.562000", "123600.562000", "123600.562000", "123600.562000", "123600.562000", "123640.515000", "123640.515000", "123640.515000", "123640.531000", "123640.531000", "123640.531000", "123640.531000", "123640.531000", "123640.546000", "123640.546000", "123640.546000", "123640.546000", "123640.546000", "123640.546000", "123640.546000", "123640.546000", "123640.562000", "123640.562000", "123640.562000", "123640.578000", "123720.515000", "123720.531000", "123720.531000", "123720.531000", "123720.546000", "123720.546000", "123720.546000", "123720.546000", "123720.562000", "123720.562000", "123720.562000", "123720.562000", "123720.562000", "123720.562000", "123720.562000", "123720.562000", "123720.578000", "123720.578000", "123720.578000", "123720.578000", "123800.515000", "123800.515000", "123800.515000", "123800.531000", "123800.531000", "123800.531000", "123800.531000", "123800.531000", "123800.531000", "123800.531000", "123800.546000", "123800.546000", "123800.546000", "123800.546000", "123800.546000", "123800.546000", "123800.546000", "123800.546000", "123800.562000", "123800.562000", "123840.515000", "123840.515000", "123840.531000", "123840.531000", "123840.531000", "123840.531000", "123840.546000", "123840.546000", "123840.546000", "123840.546000", "123840.546000", "123840.546000", "123840.546000", "123840.546000", "123840.562000", "123840.562000", "123840.562000", "123840.562000", "123840.562000", "123840.562000", "123920.515000", "123920.515000", "123920.515000", "123920.531000", "123920.531000", "123920.531000", "123920.531000", "123920.531000", "123920.531000", "123920.531000", "123920.546000", "123920.546000", "123920.546000", "123920.546000", "123920.546000", "123920.546000", "123920.546000", "123920.546000", "123920.562000", "123920.562000", "123925.093000", "123925.093000", "123925.093000"],
      "InstanceNumber": [1, 2, 3, 4, 5, 6, 7, 8, 9, 10, 11, 12, 13, 14, 15, 16, 17, 18, 19, 20, 21, 22, 23, 24, 25, 26, 27, 28, 29, 30, 31, 32, 33, 34, 35, 36, 37, 38, 39, 40, 41, 42, 43, 44, 45, 46, 47, 48, 49, 50, 51, 52, 53, 54, 55, 56, 57, 58, 59, 60, 61, 62, 63, 64, 65, 66, 67, 68, 69, 70, 71, 72, 73, 74, 75, 76, 77, 78, 79, 80, 81, 82, 83, 84, 85, 86, 87, 88, 89, 90, 91, 92, 93, 94, 95, 96, 97, 98, 99, 100, 101, 102, 103, 104, 105, 106, 107, 108, 109, 110, 111, 112, 113, 114, 115, 116, 117, 118, 119, 120, 121, 122, 123, 124, 125, 126, 127, 128, 129, 130, 131, 132, 133, 134, 135, 136, 137, 138, 139, 140, 141, 142, 143, 144, 145, 146, 147, 148, 149, 150, 151, 152, 153, 154, 155, 156, 157, 158, 159, 160, 161, 162, 163, 164],
      "LargestImagePixelValue": [2240, 2149, 2158, 2092, 2106, 2095, 2097, 2099, 2077, 2070, 2131, 2081, 2140, 2063, 2072, 2101, 2081, 2080, 2107, 2066, 2087, 2079, 2099, 2099, 2097, 2140, 2097, 2124, 2138, 2107, 2079, 2120, 2097, 2067, 2079, 2098, 2081, 2124, 2101, 2153, 2078, 2096, 2190, 2086, 2080, 2086, 2094, 2100, 2107, 2101, 2218, 2102, 2104, 2069, 2091, 2185, 2082, 2108, 2122, 2097, 2109, 2121, 2099, 2127, 2129, 2134, 2083, 2155, 2098, 2123, 2155, 2117, 2084, 2106, 2112, 2143, 2121, 2093, 2097, 2139, 2120, 2127, 2184, 2116, 2119, 2137, 2141, 2136, 2137, 2125, 2122, 2138, 2102, 2146, 2130, 2100, 2124, 2133, 2138, 2098, 2183, 2109, 2108, 2125, 2125, 2183, 2128, 2124, 2134, 2123, 2117, 2121, 2129, 2115, 2133, 2134, 2142, 2127, 2121, 2109, 2121, 2146, 2125, 2129, 2116, 2125, 2149, 2134, 2127, 2134, 2150, 2176, 2108, 2114, 2101, 2132, 2125, 2155, 2136, 2119, 2147, 2121, 2142, 2101, 2148, 2133, 2158, 2125, 2143, 2112, 2108, 2129, 2130, 2135, 2092, 2134, 2127, 2116, 2128, 2129, 2158, 2128, 2148, 2097],
      "WindowCenter": [772.0, 769.0, 769.0, 770.0, 770.0, 768.0, 767.0, 766.0, 766.0, 766.0, 768.0, 768.0, 768.0, 766.0, 766.0, 766.0, 766.0, 767.0, 768.0, 766.0, 766.0, 766.0, 767.0, 768.0, 769.0, 768.0, 767.0, 768.0, 769.0, 769.0, 768.0, 769.0, 769.0, 767.0, 767.0, 766.0, 767.0, 769.0, 769.0, 768.0, 767.0, 768.0, 769.0, 768.0, 766.0, 766.0, 767.0, 768.0, 769.0, 767.0, 768.0, 768.0, 768.0, 766.0, 765.0, 767.0, 766.0, 767.0, 769.0, 768.0, 767.0, 767.0, 767.0, 767.0, 767.0, 767.0, 766.0, 767.0, 767.0, 768.0, 769.0, 768.0, 768.0, 767.0, 767.0, 768.0, 767.0, 767.0, 767.0, 767.0, 766.0, 767.0, 767.0, 768.0, 769.0, 768.0, 768.0, 767.0, 766.0, 767.0, 767.0, 768.0, 768.0, 769.0, 769.0, 767.0, 768.0, 770.0, 770.0, 769.0, 768.0, 767.0, 767.0, 767.0, 768.0, 770.0, 769.0, 769.0, 769.0, 771.0, 770.0, 769.0, 768.0, 768.0, 768.0, 767.0, 768.0, 769.0, 769.0, 769.0, 768.0, 768.0, 768.0, 767.0, 769.0, 770.0, 769.0, 768.0, 768.0, 769.0, 771.0, 771.0, 769.0, 767.0, 768.0, 768.0, 769.0, 768.0, 768.0, 768.0, 771.0, 770.0, 769.0, 768.0, 768.0, 769.0, 769.0, 768.0, 768.0, 768.0, 767.0, 767.0, 768.0, 769.0, 769.0, 770.0, 769.0, 768.0, 770.0, 771.0, 771.0, 771.0, 771.0, 769.0],
      "WindowWidth": [1686.0, 1676.0, 1679.0, 1681.0, 1679.0, 1674.0, 1673.0, 1669.0, 1670.0, 1670.0, 1676.0, 1675.0, 1674.0, 1670.0, 1670.0, 1670.0, 1670.0, 1672.0, 1674.0, 1670.0, 1669.0, 1668.0, 1673.0, 1676.0, 1677.0, 1675.0, 1672.0, 1675.0, 1679.0, 1678.0, 1675.0, 1678.0, 1678.0, 1673.0, 1671.0, 1669.0, 1673.0, 1680.0, 1678.0, 1676.0, 1672.0, 1676.0, 1678.0, 1673.0, 1670.0, 1670.0, 1672.0, 1676.0, 1676.0, 1674.0, 1675.0, 1675.0, 1674.0, 1669.0, 1668.0, 1673.0, 1670.0, 1673.0, 1678.0, 1675.0, 1671.0, 1671.0, 1671.0, 1672.0, 1671.0, 1671.0, 1669.0, 1674.0, 1673.0, 1676.0, 1677.0, 1676.0, 1676.0, 1672.0, 1671.0, 1674.0, 1674.0, 1673.0, 1674.0, 1673.0, 1670.0, 1672.0, 1674.0, 1674.0, 1677.0, 1676.0, 1675.0, 1673.0, 1671.0, 1673.0, 1672.0, 1674.0, 1676.0, 1677.0, 1676.0, 1673.0, 1676.0, 1682.0, 1681.0, 1677.0, 1676.0, 1672.0, 1672.0, 1672.0, 1675.0, 1680.0, 1676.0, 1676.0, 1677.0, 1682.0, 1681.0, 1677.0, 1674.0, 1673.0, 1674.0, 1673.0, 1674.0, 1679.0, 1679.0, 1677.0, 1675.0, 1675.0, 1674.0, 1673.0, 1678.0, 1681.0, 1678.0, 1675.0, 1675.0, 1677.0, 1682.0, 1683.0, 1676.0, 1673.0, 1673.0, 1675.0, 1676.0, 1675.0, 1674.0, 1675.0, 1683.0, 1681.0, 1677.0, 1675.0, 1675.0, 1676.0, 1677.0, 1676.0, 1675.0, 1674.0, 1672.0, 1672.0, 1674.0, 1677.0, 1679.0, 1680.0, 1676.0, 1675.0, 1681.0, 1683.0, 1683.0, 1682.0, 1682.0, 1678.0]
    },
    "slices": {}
  }
}