{
  "AcquisitionMatrixPE": 64,
  "AcquisitionNumber": 1,
  "AcquisitionTime": "12:46:59.357500",
  "BandwidthPerPixelPhaseEncode": 33.967,
  "BaseResolution": 64,
  "CoilCombinationMethod": "Sum of Squares",
  "CoilString": "C:HEA;HEP",
  "ConversionSoftware": "dcm2niix",
  "ConversionSoftwareVersion": "v1.0.20220720",
  "DerivedVendorReportedEchoSpacing": 0.000460005,
  "DeviceSerialNumber": "35193",
  "DwellTime": 3.1e-06,
  "EchoTime": 0.03,
  "EffectiveEchoSpacing": 0.000460005,
  "FlipAngle": 90,
  "HeudiconvVersion": "1.1.6",
  "ImageOrientationPatientDICOM": [1, 0, 0, 0, 1, 0],
  "ImageOrientationText": "Tra",
  "ImageType": [
    "ORIGINAL",
    "PRIMARY",
    "M",
    "ND",
    "MOSAIC"
],
  "ImagingFrequency": 123.254,
  "InPlanePhaseEncodingDirectionDICOM": "COL",
  "InstitutionAddress": "Xinjiekouwai Street No 19,Beijing,Haidian District,CN,100875",
  "InstitutionName": "BNU MRI Center",
  "InstitutionalDepartmentName": "Department",
  "MRAcquisitionType": "2D",
  "MagneticFieldStrength": 3,
  "Manufacturer": "Siemens",
  "ManufacturersModelName": "TrioTim",
  "MatrixCoilMode": "SENSE",
  "Modality": "MR",
  "NonlinearGradientCorrection": false,
  "PartialFourier": 1,
  "PatientPosition": "HFS",
  "PercentPhaseFOV": 100,
  "PercentSampling": 100,
  "PhaseEncodingDirection": "j-",
  "PhaseEncodingSteps": 64,
  "PhaseResolution": 1,
  "PixelBandwidth": 2520,
  "ProcedureStepDescription": "BNU_cst_2015^Guo.TaoMei",
  "ProtocolName": "ge_func_3x3x4_164",
  "PulseSequenceDetails": "%SiemensSeq%\\ep2d_bold",
  "ReceiveCoilName": "HeadMatrix",
  "ReconMatrixPE": 64,
  "RepetitionTime": 2,
  "SAR": 0.12905,
  "ScanOptions": "FS",
  "ScanningSequence": "EP",
  "SequenceName": "*epfid2d1_64",
  "SequenceVariant": "SK",
  "SeriesDescription": "ge_func_3x3x4_164",
  "SeriesNumber": 5,
  "ShimSetting": [-4467, -19348, -9797, 1165, -137, -487, 265, 34],
  "SliceThickness": 4,
  "SliceTiming": [0, 1.035, 0.06, 1.095, 0.1225, 1.155, 0.1825, 1.2175, 0.2425, 1.2775, 0.305, 1.3375, 0.365, 1.4, 0.425, 1.46, 0.4875, 1.52, 0.5475, 1.5825, 0.6075, 1.6425, 0.67, 1.7025, 0.73, 1.765, 0.79, 1.825, 0.8525, 1.885, 0.9125, 1.9475, 0.9725],
  "SoftwareVersions": "syngo MR B17",
  "SpacingBetweenSlices": 4.6,
  "StationName": "MRC35193",
  "TaskName": "CognitiveControl",
  "TotalReadoutTime": 0.0289803,
  "TxRefAmp": 355.169,
  "dcmmeta_affine": [
    [-3.125, 0.0, 0.0, 96.62650299072266],
    [0.0, 3.125, 0.0, -87.42921447753906],
    [0.0, 0.0, 4.599999904632568, -74.94939422607422],
    [0.0, 0.0, 0.0, 1.0]
],
  "dcmmeta_reorient_transform": [
    [0.0, -1.0, 0.0, 63.0],
    [1.0, 0.0, 0.0, 0.0],
    [0.0, 0.0, 1.0, 0.0],
    [0.0, 0.0, 0.0, 1.0]
],
  "dcmmeta_shape": [64, 64, 33, 164],
  "dcmmeta_slice_dim": 2,
  "dcmmeta_version": 0.6,
  "global": {
    "const": {
      "AcquisitionMatrix": [64, 0, 0, 64],
      "AngioFlag": "N",
      "BitsAllocated": 16,
      "BitsStored": 12,
      "Columns": 384,
      "EchoNumbers": 1,
      "EchoTime": 30.0,
      "EchoTrainLength": 1,
      "FlipAngle": 90.0,
      "HighBit": 11,
      "ImageOrientationPatient": [1.0, 0.0, 0.0, 0.0, 1.0, 0.0],
      "ImagePositionPatient": [-596.62650609016, -609.44578266144, -74.949394226074],
      "ImageType": [
        "ORIGINAL",
        "PRIMARY",
        "M",
        "ND",
        "MOSAIC"
],
      "ImagedNucleus": "1H",
      "ImagingFrequency": 123.25371,
      "InPlanePhaseEncodingDirection": "COL",
      "MRAcquisitionType": "2D",
      "MagneticFieldStrength": 3.0,
      "Manufacturer": "SIEMENS",
      "ManufacturerModelName": "TrioTim",
      "Modality": "MR",
      "NumberOfAverages": 1.0,
      "NumberOfPhaseEncodingSteps": 64,
      "PercentPhaseFieldOfView": 100.0,
      "PercentSampling": 100.0,
      "PerformedProcedureStepStartTime": "122508.734000",
      "PhotometricInterpretation": "MONOCHROME2",
      "PixelBandwidth": 2520.0,
      "PixelRepresentation": 0,
      "PixelSpacing": [3.125, 3.125],
      "ProtocolName": "ge_func_3x3x4_164",
      "RepetitionTime": 2000.0,
      "Rows": 384,
      "SAR": 0.1290502985075,
      "SamplesPerPixel": 1,
      "ScanOptions": "FS",
      "ScanningSequence": "EP",
      "SequenceName": "*epfid2d1_64",
      "SequenceVariant": "SK",
      "SeriesDescription": "ge_func_3x3x4_164",
      "SeriesNumber": 5,
      "SeriesTime": "124753.296000",
      "SliceLocation": -74.949394226074,
      "SliceThickness": 4.0,
      "SmallestImagePixelValue": 0,
      "SoftwareVersions": "syngo MR B17",
      "SpacingBetweenSlices": 4.5999999046326,
      "SpecificCharacterSet": "ISO_IR 100",
      "StudyID": "1",
      "StudyTime": "122507.890000",
      "TransmitCoilName": "Body",
      "VariableFlipAngleFlag": "N",
      "WindowCenterWidthExplanation": "Algo1",
      "dBdt": 0.0},
    "slices": {}
  },
  "time": {
    "samples": {
      "AcquisitionNumber": [1, 2, 3, 4, 5, 6, 7, 8, 9, 10, 11, 12, 13, 14, 15, 16, 17, 18, 19, 20, 21, 22, 23, 24, 25, 26, 27, 28, 29, 30, 31, 32, 33, 34, 35, 36, 37, 38, 39, 40, 41, 42, 43, 44, 45, 46, 47, 48, 49, 50, 51, 52, 53, 54, 55, 56, 57, 58, 59, 60, 61, 62, 63, 64, 65, 66, 67, 68, 69, 70, 71, 72, 73, 74, 75, 76, 77, 78, 79, 80, 81, 82, 83, 84, 85, 86, 87, 88, 89, 90, 91, 92, 93, 94, 95, 96, 97, 98, 99, 100, 101, 102, 103, 104, 105, 106, 107, 108, 109, 110, 111, 112, 113, 114, 115, 116, 117, 118, 119, 120, 121, 122, 123, 124, 125, 126, 127, 128, 129, 130, 131, 132, 133, 134, 135, 136, 137, 138, 139, 140, 141, 142, 143, 144, 145, 146, 147, 148, 149, 150, 151, 152, 153, 154, 155, 156, 157, 158, 159, 160, 161, 162, 163, 164],
      "AcquisitionTime": ["124659.357500", "124701.365000", "124703.375000", "124705.382500", "124707.390000", "124709.397500", "124711.405000", "124713.415000", "124715.422500", "124717.430000", "124719.437500", "124721.445000", "124723.455000", "124725.462500", "124727.470000", "124729.477500", "124731.487500", "124733.495000", "124735.502500", "124737.510000", "124739.517500", "124741.527500", "124743.535000", "124745.542500", "124747.550000", "124749.557500", "124751.567500", "124753.575000", "124755.582500", "124757.590000", "124759.600000", "124801.607500", "124803.615000", "124805.622500", "124807.630000", "124809.640000", "124811.647500", "124813.655000", "124815.662500", "124817.670000", "124819.680000", "124821.687500", "124823.695000", "124825.702500", "124827.710000", "124829.720000", "124831.727500", "124833.735000", "124835.742500", "124837.752500", "124839.760000", "124841.767500", "124843.775000", "124845.782500", "124847.792500", "124849.800000", "124851.807500", "124853.815000", "124855.822500", "124857.832500", "124859.840000", "124901.847500", "124903.855000", "124905.865000", "124907.872500", "124909.880000", "124911.887500", "124913.895000", "124915.905000", "124917.912500", "124919.920000", "124921.927500", "124923.935000", "124925.945000", "124927.952500", "124929.960000", "124931.967500", "124933.977500", "124935.985000", "124937.992500", "124940.000000", "124942.007500", "124944.017500", "124946.025000", "124948.032500", "124950.040000", "124952.047500", "124954.057500", "124956.065000", "124958.072500", "125000.080000", "125002.087500", "125004.097500", "125006.105000", "125008.112500", "125010.120000", "125012.130000", "125014.137500", "125016.145000", "125018.152500", "125020.160000", "125022.170000", "125024.177500", "125026.185000", "125028.192500", "125030.200000", "125032.210000", "125034.217500", "125036.225000", "125038.232500", "125040.242500", "125042.250000", "125044.257500", "125046.265000", "125048.272500", "125050.282500", "125052.290000", "125054.297500", "125056.305000", "125058.312500", "125100.322500", "125102.330000", "125104.337500", "125106.345000", "125108.355000", "125110.362500", "125112.370000", "125114.377500", "125116.385000", "125118.395000", "125120.402500", "125122.410000", "125124.417500", "125126.425000", "125128.435000", "125130.442500", "125132.450000", "125134.457500", "125136.465000", "125138.475000", "125140.482500", "125142.490000", "125144.497500", "125146.507500", "125148.515000", "125150.522500", "125152.530000", "125154.537500", "125156.547500", "125158.555000", "125200.562500", "125202.570000", "125204.577500", "125206.587500", "125208.595000", "125210.602500", "125212.610000", "125214.620000", "125216.627500", "125218.635000", "125220.642500", "125222.650000", "125224.660000", "125226.667500"],
      "ContentTime": ["124753.296000", "124753.296000", "124753.296000", "124753.312000", "124753.312000", "124753.312000", "124753.312000", "124753.312000", "124753.312000", "124753.312000", "124753.312000", "124753.312000", "124753.328000", "124753.328000", "124753.328000", "124753.328000", "124753.343000", "124753.343000", "124753.343000", "124753.343000", "124753.343000", "124753.359000", "124753.359000", "124753.359000", "124753.359000", "124753.359000", "124833.281000", "124833.281000", "124833.281000", "124833.296000", "124833.296000", "124833.296000", "124833.312000", "124833.312000", "124833.312000", "124833.312000", "124833.312000", "124833.312000", "124833.312000", "124833.312000", "124833.328000", "124833.328000", "124833.328000", "124833.328000", "124833.328000", "124833.328000", "124913.281000", "124913.281000", "124913.281000", "124913.296000", "124913.296000", "124913.296000", "124913.296000", "124913.296000", "124913.296000", "124913.296000", "124913.312000", "124913.312000", "124913.312000", "124913.312000", "124913.312000", "124913.328000", "124913.328000", "124913.328000", "124913.328000", "124913.328000", "124953.281000", "124953.296000", "124953.296000", "124953.296000", "124953.312000", "124953.312000", "124953.312000", "124953.312000", "124953.312000", "124953.312000", "124953.312000", "124953.328000", "124953.328000", "124953.328000", "124953.328000", "124953.328000", "124953.328000", "124953.328000", "124953.343000", "124953.343000", "125033.281000", "125033.281000", "125033.281000", "125033.296000", "125033.296000", "125033.296000", "125033.296000", "125033.296000", "125033.296000", "125033.296000", "125033.296000", "125033.312000", "125033.312000", "125033.312000", "125033.312000", "125033.328000", "125033.328000", "125033.328000", "125033.328000", "125033.328000", "125113.281000", "125113.281000", "125113.281000", "125113.296000", "125113.296000", "125113.296000", "125113.296000", "125113.296000", "125113.296000", "125113.296000", "125113.312000", "125113.312000", "125113.312000", "125113.312000", "125113.312000", "125113.312000", "125113.312000", "125113.312000", "125113.328000", "125113.328000", "125153.281000", "125153.281000", "125153.281000", "125153.296000", "125153.296000", "125153.296000", "125153.296000", "125153.312000", "125153.312000", "125153.312000", "125153.312000", "125153.312000", "125153.312000", "125153.312000", "125153.328000", "125153.328000", "125153.328000", "125153.328000", "125153.328000", "125153.328000", "125229.015000", "125229.015000", "125229.015000", "125229.015000", "125229.015000", "125229.031000", "125229.031000", "125229.031000", "125229.031000", "125229.031000", "125229.046000", "125229.046000", "125229.046000", "125229.046000", "125229.062000", "125229.062000", "125229.062000", "125229.062000"],
      "InstanceCreationTime": ["124753.296000", "124753.296000", "124753.296000", "124753.312000", "124753.312000", "124753.312000", "124753.312000", "124753.312000", "124753.312000", "124753.312000", "124753.312000", "124753.312000", "124753.328000", "124753.328000", "124753.328000", "124753.328000", "124753.343000", "124753.343000", "124753.343000", "124753.343000", "124753.343000", "124753.359000", "124753.359000", "124753.359000", "124753.359000", "124753.359000", "124833.281000", "124833.281000", "124833.281000", "124833.296000", "124833.296000", "124833.296000", "124833.312000", "124833.312000", "124833.312000", "124833.312000", "124833.312000", "124833.312000", "124833.312000", "124833.312000", "124833.328000", "124833.328000", "124833.328000", "124833.328000", "124833.328000", "124833.328000", "124913.281000", "124913.281000", "124913.281000", "124913.296000", "124913.296000", "124913.296000", "124913.296000", "124913.296000", "124913.296000", "124913.296000", "124913.312000", "124913.312000", "124913.312000", "124913.312000", "124913.312000", "124913.328000", "124913.328000", "124913.328000", "124913.328000", "124913.328000", "124953.281000", "124953.296000", "124953.296000", "124953.296000", "124953.312000", "124953.312000", "124953.312000", "124953.312000", "124953.312000", "124953.312000", "124953.312000", "124953.328000", "124953.328000", "124953.328000", "124953.328000", "124953.328000", "124953.328000", "124953.328000", "124953.343000", "124953.343000", "125033.281000", "125033.281000", "125033.281000", "125033.296000", "125033.296000", "125033.296000", "125033.296000", "125033.296000", "125033.296000", "125033.296000", "125033.296000", "125033.312000", "125033.312000", "125033.312000", "125033.312000", "125033.328000", "125033.328000", "125033.328000", "125033.328000", "125033.328000", "125113.281000", "125113.281000", "125113.281000", "125113.296000", "125113.296000", "125113.296000", "125113.296000", "125113.296000", "125113.296000", "125113.296000", "125113.312000", "125113.312000", "125113.312000", "125113.312000", "125113.312000", "125113.312000", "125113.312000", "125113.312000", "125113.328000", "125113.328000", "125153.281000", "125153.281000", "125153.281000", "125153.296000", "125153.296000", "125153.296000", "125153.296000", "125153.312000", "125153.312000", "125153.312000", "125153.312000", "125153.312000", "125153.312000", "125153.312000", "125153.328000", "125153.328000", "125153.328000", "125153.328000", "125153.328000", "125153.328000", "125229.015000", "125229.015000", "125229.015000", "125229.015000", "125229.015000", "125229.031000", "125229.031000", "125229.031000", "125229.031000", "125229.031000", "125229.046000", "125229.046000", "125229.046000", "125229.046000", "125229.062000", "125229.062000", "125229.062000", "125229.062000"],
      "InstanceNumber": [1, 2, 3, 4, 5, 6, 7, 8, 9, 10, 11, 12, 13, 14, 15, 16, 17, 18, 19, 20, 21, 22, 23, 24, 25, 26, 27, 28, 29, 30, 31, 32, 33, 34, 35, 36, 37, 38, 39, 40, 41, 42, 43, 44, 45, 46, 47, 48, 49, 50, 51, 52, 53, 54, 55, 56, 57, 58, 59, 60, 61, 62, 63, 64, 65, 66, 67, 68, 69, 70, 71, 72, 73, 74, 75, 76, 77, 78, 79, 80, 81, 82, 83, 84, 85, 86, 87, 88, 89, 90, 91, 92, 93, 94, 95, 96, 97, 98, 99, 100, 101, 102, 103, 104, 105, 106, 107, 108, 109, 110, 111, 112, 113, 114, 115, 116, 117, 118, 119, 120, 121, 122, 123, 124, 125, 126, 127, 128, 129, 130, 131, 132, 133, 134, 135, 136, 137, 138, 139, 140, 141, 142, 143, 144, 145, 146, 147, 148, 149, 150, 151, 152, 153, 154, 155, 156, 157, 158, 159, 160, 161, 162, 163, 164],
      "LargestImagePixelValue": [2230, 2157, 2112, 2138, 2105, 2091, 2098, 2109, 2092, 2094, 2115, 2108, 2106, 2097, 2093, 2110, 2091, 2100, 2083, 2107, 2082, 2110, 2111, 2115, 2098, 2100, 2115, 2096, 2120, 2094, 2100, 2122, 2119, 2095, 2089, 2098, 2112, 2113, 2115, 2112, 2103, 2120, 2118, 2113, 2105, 2121, 2109, 2096, 2121, 2117, 2103, 2115, 2106, 2148, 2086, 2117, 2119, 2124, 2111, 2113, 2098, 2104, 2102, 2125, 2103, 2096, 2092, 2107, 2112, 2110, 2127, 2102, 2103, 2112, 2084, 2114, 2101, 2120, 2101, 2110, 2091, 2106, 2088, 2107, 2131, 2141, 2123, 2111, 2120, 2125, 2117, 2135, 2097, 2121, 2110, 2112, 2122, 2118, 2102, 2121, 2125, 2126, 2128, 2127, 2095, 2125, 2104, 2100, 2100, 2120, 2101, 2115, 2116, 2100, 2119, 2132, 2106, 2118, 2101, 2115, 2129, 2125, 2111, 2115, 2107, 2127, 2135, 2130, 2133, 2142, 2122, 2137, 2135, 2148, 2135, 2152, 2138, 2116, 2117, 2121, 2110, 2100, 2097, 2094, 2120, 2115, 2121, 2098, 2103, 2120, 2114, 2102, 2119, 2104, 2122, 2151, 2111, 2126, 2114, 2111, 2119, 2123, 2131, 2120],
      "WindowCenter": [774.0, 771.0, 772.0, 771.0, 770.0, 769.0, 769.0, 769.0, 770.0, 772.0, 773.0, 772.0, 771.0, 770.0, 771.0, 771.0, 772.0, 773.0, 773.0, 773.0, 773.0, 773.0, 773.0, 772.0, 772.0, 771.0, 772.0, 772.0, 772.0, 771.0, 772.0, 773.0, 773.0, 772.0, 771.0, 772.0, 772.0, 773.0, 772.0, 772.0, 771.0, 772.0, 772.0, 772.0, 771.0, 771.0, 771.0, 773.0, 772.0, 772.0, 772.0, 772.0, 772.0, 771.0, 771.0, 771.0, 771.0, 773.0, 774.0, 773.0, 772.0, 773.0, 773.0, 773.0, 772.0, 771.0, 771.0, 772.0, 774.0, 773.0, 773.0, 771.0, 771.0, 771.0, 771.0, 773.0, 773.0, 773.0, 773.0, 773.0, 772.0, 772.0, 771.0, 772.0, 773.0, 774.0, 774.0, 773.0, 773.0, 773.0, 772.0, 772.0, 772.0, 771.0, 773.0, 773.0, 773.0, 773.0, 772.0, 772.0, 773.0, 773.0, 772.0, 771.0, 770.0, 771.0, 772.0, 773.0, 773.0, 772.0, 772.0, 772.0, 773.0, 773.0, 772.0, 771.0, 771.0, 771.0, 771.0, 772.0, 773.0, 773.0, 772.0, 771.0, 773.0, 774.0, 774.0, 774.0, 774.0, 773.0, 772.0, 773.0, 774.0, 774.0, 775.0, 775.0, 774.0, 773.0, 774.0, 774.0, 773.0, 772.0, 771.0, 771.0, 773.0, 773.0, 773.0, 772.0, 772.0, 773.0, 773.0, 773.0, 773.0, 774.0, 774.0, 774.0, 773.0, 772.0, 773.0, 773.0, 773.0, 772.0, 773.0, 774.0],
      "WindowWidth": [1691.0, 1684.0, 1684.0, 1683.0, 1679.0, 1677.0, 1677.0, 1678.0, 1680.0, 1685.0, 1688.0, 1686.0, 1682.0, 1680.0, 1681.0, 1683.0, 1686.0, 1687.0, 1688.0, 1689.0, 1686.0, 1687.0, 1687.0, 1686.0, 1683.0, 1682.0, 1685.0, 1685.0, 1685.0, 1683.0, 1686.0, 1689.0, 1687.0, 1683.0, 1683.0, 1685.0, 1685.0, 1687.0, 1685.0, 1684.0, 1683.0, 1685.0, 1686.0, 1686.0, 1683.0, 1683.0, 1683.0, 1687.0, 1687.0, 1685.0, 1684.0, 1685.0, 1684.0, 1682.0, 1681.0, 1683.0, 1682.0, 1689.0, 1690.0, 1687.0, 1684.0, 1688.0, 1688.0, 1688.0, 1685.0, 1682.0, 1683.0, 1686.0, 1690.0, 1689.0, 1687.0, 1684.0, 1683.0, 1683.0, 1683.0, 1688.0, 1689.0, 1689.0, 1688.0, 1687.0, 1686.0, 1684.0, 1682.0, 1684.0, 1688.0, 1692.0, 1692.0, 1689.0, 1687.0, 1687.0, 1686.0, 1686.0, 1684.0, 1683.0, 1687.0, 1688.0, 1689.0, 1687.0, 1684.0, 1685.0, 1689.0, 1688.0, 1685.0, 1682.0, 1680.0, 1683.0, 1685.0, 1688.0, 1687.0, 1686.0, 1684.0, 1686.0, 1687.0, 1688.0, 1686.0, 1684.0, 1682.0, 1681.0, 1683.0, 1686.0, 1689.0, 1688.0, 1686.0, 1684.0, 1689.0, 1691.0, 1691.0, 1690.0, 1690.0, 1688.0, 1685.0, 1688.0, 1690.0, 1692.0, 1694.0, 1692.0, 1691.0, 1688.0, 1690.0, 1691.0, 1688.0, 1685.0, 1681.0, 1682.0, 1688.0, 1687.0, 1687.0, 1686.0, 1685.0, 1687.0, 1688.0, 1688.0, 1688.0, 1690.0, 1691.0, 1691.0, 1687.0, 1686.0, 1687.0, 1688.0, 1687.0, 1686.0, 1689.0, 1692.0]
    },
    "slices": {}
  }
}