{
  "AcquisitionMatrixPE": 64,
  "AcquisitionNumber": 1,
  "AcquisitionTime": "15:37:6.882500",
  "BandwidthPerPixelPhaseEncode": 33.967,
  "BaseResolution": 64,
  "CoilCombinationMethod": "Sum of Squares",
  "CoilString": "C:HEA;HEP",
  "ConversionSoftware": "dcm2niix",
  "ConversionSoftwareVersion": "v1.0.20220720",
  "DerivedVendorReportedEchoSpacing": 0.000460005,
  "DeviceSerialNumber": "35193",
  "DwellTime": 3.1e-06,
  "EchoTime": 0.03,
  "EffectiveEchoSpacing": 0.000460005,
  "FlipAngle": 90,
  "HeudiconvVersion": "1.1.6",
  "ImageOrientationPatientDICOM": [0.999925, -0.012217, 0, 0.012217, 0.999925, 0],
  "ImageOrientationText": "Tra",
  "ImageType": [
    "ORIGINAL",
    "PRIMARY",
    "M",
    "ND",
    "MOSAIC"
],
  "ImagingFrequency": 123.254,
  "InPlanePhaseEncodingDirectionDICOM": "COL",
  "InstitutionAddress": "Xinjiekouwai Street No 19,Beijing,Haidian District,CN,100875",
  "InstitutionName": "Beijing Normal Universtiy/2773C4/",
  "InstitutionalDepartmentName": "Department",
  "MRAcquisitionType": "2D",
  "MagneticFieldStrength": 3,
  "Manufacturer": "Siemens",
  "ManufacturersModelName": "TrioTim",
  "MatrixCoilMode": "SENSE",
  "Modality": "MR",
  "NonlinearGradientCorrection": false,
  "PartialFourier": 1,
  "PatientPosition": "HFS",
  "PercentPhaseFOV": 100,
  "PercentSampling": 100,
  "PhaseEncodingDirection": "j-",
  "PhaseEncodingSteps": 64,
  "PhaseResolution": 1,
  "PixelBandwidth": 2520,
  "ProcedureStepDescription": "BNU_cst_2015^Guo.TaoMei",
  "ProtocolName": "ge_func_3x3x4_164",
  "PulseSequenceDetails": "%SiemensSeq%\\ep2d_bold",
  "ReceiveCoilName": "HeadMatrix",
  "ReconMatrixPE": 64,
  "RepetitionTime": 2,
  "SAR": 0.138932,
  "ScanOptions": "FS",
  "ScanningSequence": "EP",
  "SequenceName": "*epfid2d1_64",
  "SequenceVariant": "SK",
  "SeriesDescription": "ge_func_3x3x4_164",
  "SeriesNumber": 5,
  "ShimSetting": [-4489, -19359, -9845, 877, -52, -551, 107, -58],
  "SliceThickness": 4,
  "SliceTiming": [0, 1.035, 0.0625, 1.095, 0.1225, 1.1575, 0.1825, 1.2175, 0.245, 1.2775, 0.305, 1.34, 0.365, 1.4, 0.4275, 1.46, 0.4875, 1.5225, 0.5475, 1.5825, 0.61, 1.6425, 0.67, 1.705, 0.73, 1.765, 0.7925, 1.825, 0.8525, 1.8875, 0.9125, 1.9475, 0.975],
  "SoftwareVersions": "syngo MR B17",
  "SpacingBetweenSlices": 4.6,
  "StationName": "MRC35193",
  "TaskName": "LanguageControl",
  "TotalReadoutTime": 0.0289803,
  "TxRefAmp": 340.956,
  "dcmmeta_affine": [
    [-3.1247668266296387, 0.038178011775016785, 0.0, 106.23070526123047],
    [0.038178011775016785, 3.1247668266296387, 0.0, -87.96898651123047],
    [0.0, 0.0, 4.599999904632568, -75.62409973144531],
    [0.0, 0.0, 0.0, 1.0]
],
  "dcmmeta_reorient_transform": [
    [0.0, -1.0, 0.0, 63.0],
    [1.0, 0.0, 0.0, 0.0],
    [0.0, 0.0, 1.0, 0.0],
    [0.0, 0.0, 0.0, 1.0]
],
  "dcmmeta_shape": [64, 64, 33, 164],
  "dcmmeta_slice_dim": 2,
  "dcmmeta_version": 0.6,
  "global": {
    "const": {
      "AcquisitionMatrix": [64, 0, 0, 64],
      "AngioFlag": "N",
      "BitsAllocated": 16,
      "BitsStored": 12,
      "Columns": 384,
      "EchoNumbers": 1,
      "EchoTime": 30.0,
      "EchoTrainLength": 1,
      "FlipAngle": 90.0,
      "HighBit": 11,
      "ImageOrientationPatient": [0.99992537012045, -0.0122169631855, 0.0, 0.01221696318555, 0.99992537012045, 0.0],
      "ImagePositionPatient": [-614.70708663292, -602.74552565203, -75.624099731445],
      "ImageType": [
        "ORIGINAL",
        "PRIMARY",
        "M",
        "ND",
        "MOSAIC"
],
      "ImagedNucleus": "1H",
      "ImagingFrequency": 123.253672,
      "InPlanePhaseEncodingDirection": "COL",
      "MRAcquisitionType": "2D",
      "MagneticFieldStrength": 3.0,
      "Manufacturer": "SIEMENS",
      "ManufacturerModelName": "TrioTim",
      "Modality": "MR",
      "NumberOfAverages": 1.0,
      "NumberOfPhaseEncodingSteps": 64,
      "PercentPhaseFieldOfView": 100.0,
      "PercentSampling": 100.0,
      "PerformedProcedureStepStartTime": "150144.859000",
      "PhotometricInterpretation": "MONOCHROME2",
      "PixelBandwidth": 2520.0,
      "PixelRepresentation": 0,
      "PixelSpacing": [3.125, 3.125],
      "ProtocolName": "ge_func_3x3x4_164",
      "RepetitionTime": 2000.0,
      "Rows": 384,
      "SAR": 0.13893178814579,
      "SamplesPerPixel": 1,
      "ScanOptions": "FS",
      "ScanningSequence": "EP",
      "SequenceName": "*epfid2d1_64",
      "SequenceVariant": "SK",
      "SeriesDescription": "ge_func_3x3x4_164",
      "SeriesNumber": 5,
      "SeriesTime": "153752.078000",
      "SliceLocation": -75.624099731445,
      "SliceThickness": 4.0,
      "SmallestImagePixelValue": 0,
      "SoftwareVersions": "syngo MR B17",
      "SpacingBetweenSlices": 4.6000001430511,
      "SpecificCharacterSet": "ISO_IR 100",
      "StudyID": "1",
      "StudyTime": "150144.796000",
      "TransmitCoilName": "Body",
      "VariableFlipAngleFlag": "N",
      "WindowCenterWidthExplanation": "Algo1",
      "dBdt": 0.0},
    "slices": {}
  },
  "time": {
    "samples": {
      "AcquisitionNumber": [1, 2, 3, 4, 5, 6, 7, 8, 9, 10, 11, 12, 13, 14, 15, 16, 17, 18, 19, 20, 21, 22, 23, 24, 25, 26, 27, 28, 29, 30, 31, 32, 33, 34, 35, 36, 37, 38, 39, 40, 41, 42, 43, 44, 45, 46, 47, 48, 49, 50, 51, 52, 53, 54, 55, 56, 57, 58, 59, 60, 61, 62, 63, 64, 65, 66, 67, 68, 69, 70, 71, 72, 73, 74, 75, 76, 77, 78, 79, 80, 81, 82, 83, 84, 85, 86, 87, 88, 89, 90, 91, 92, 93, 94, 95, 96, 97, 98, 99, 100, 101, 102, 103, 104, 105, 106, 107, 108, 109, 110, 111, 112, 113, 114, 115, 116, 117, 118, 119, 120, 121, 122, 123, 124, 125, 126, 127, 128, 129, 130, 131, 132, 133, 134, 135, 136, 137, 138, 139, 140, 141, 142, 143, 144, 145, 146, 147, 148, 149, 150, 151, 152, 153, 154, 155, 156, 157, 158, 159, 160, 161, 162, 163, 164],
      "AcquisitionTime": ["153706.882500", "153708.890000", "153710.900000", "153712.907500", "153714.915000", "153716.922500", "153718.930000", "153720.940000", "153722.947500", "153724.955000", "153726.962500", "153728.972500", "153730.980000", "153732.987500", "153734.995000", "153737.002500", "153739.012500", "153741.020000", "153743.027500", "153745.035000", "153747.042500", "153749.052500", "153751.060000", "153753.067500", "153755.075000", "153757.085000", "153759.092500", "153801.100000", "153803.107500", "153805.115000", "153807.125000", "153809.132500", "153811.140000", "153813.147500", "153815.155000", "153817.165000", "153819.172500", "153821.180000", "153823.187500", "153825.197500", "153827.205000", "153829.212500", "153831.220000", "153833.227500", "153835.237500", "153837.245000", "153839.252500", "153841.260000", "153843.267500", "153845.277500", "153847.285000", "153849.292500", "153851.300000", "153853.307500", "153855.317500", "153857.325000", "153859.332500", "153901.340000", "153903.350000", "153905.357500", "153907.365000", "153909.372500", "153911.380000", "153913.390000", "153915.397500", "153917.405000", "153919.412500", "153921.420000", "153923.430000", "153925.437500", "153927.445000", "153929.452500", "153931.462500", "153933.470000", "153935.477500", "153937.485000", "153939.492500", "153941.502500", "153943.510000", "153945.517500", "153947.525000", "153949.532500", "153951.542500", "153953.550000", "153955.557500", "153957.565000", "153959.575000", "154001.582500", "154003.590000", "154005.597500", "154007.605000", "154009.615000", "154011.622500", "154013.630000", "154015.637500", "154017.645000", "154019.655000", "154021.662500", "154023.670000", "154025.677500", "154027.685000", "154029.695000", "154031.702500", "154033.710000", "154035.717500", "154037.727500", "154039.735000", "154041.742500", "154043.750000", "154045.757500", "154047.767500", "154049.775000", "154051.782500", "154053.790000", "154055.797500", "154057.807500", "154059.815000", "154101.822500", "154103.830000", "154105.840000", "154107.847500", "154109.855000", "154111.862500", "154113.870000", "154115.880000", "154117.887500", "154119.895000", "154121.902500", "154123.910000", "154125.920000", "154127.927500", "154129.935000", "154131.942500", "154133.952500", "154135.960000", "154137.967500", "154139.975000", "154141.982500", "154143.992500", "154146.000000", "154148.007500", "154150.015000", "154152.022500", "154154.032500", "154156.040000", "154158.047500", "154200.055000", "154202.062500", "154204.072500", "154206.080000", "154208.087500", "154210.095000", "154212.105000", "154214.112500", "154216.120000", "154218.127500", "154220.135000", "154222.145000", "154224.152500", "154226.160000", "154228.167500", "154230.175000", "154232.185000", "154234.192500"],
      "ContentTime": ["153752.078000", "153752.078000", "153752.093000", "153752.093000", "153752.093000", "153752.093000", "153752.093000", "153752.093000", "153752.093000", "153752.093000", "153752.093000", "153752.109000", "153752.109000", "153752.109000", "153752.109000", "153752.109000", "153752.109000", "153752.109000", "153752.109000", "153752.125000", "153752.125000", "153832.078000", "153832.078000", "153832.078000", "153832.078000", "153832.078000", "153832.078000", "153832.093000", "153832.093000", "153832.093000", "153832.093000", "153832.093000", "153832.093000", "153832.093000", "153832.093000", "153832.109000", "153832.109000", "153832.109000", "153832.109000", "153832.109000", "153832.125000", "153912.078000", "153912.078000", "153912.078000", "153912.078000", "153912.078000", "153912.078000", "153912.093000", "153912.093000", "153912.093000", "153912.093000", "153912.093000", "153912.109000", "153912.109000", "153912.109000", "153912.109000", "153912.109000", "153912.109000", "153912.109000", "153912.109000", "153912.125000", "153952.078000", "153952.078000", "153952.078000", "153952.078000", "153952.093000", "153952.093000", "153952.093000", "153952.093000", "153952.093000", "153952.109000", "153952.109000", "153952.109000", "153952.109000", "153952.125000", "153952.125000", "153952.125000", "153952.125000", "153952.125000", "153952.125000", "153952.125000", "154032.078000", "154032.078000", "154032.078000", "154032.093000", "154032.093000", "154032.093000", "154032.093000", "154032.093000", "154032.109000", "154032.109000", "154032.109000", "154032.109000", "154032.125000", "154032.125000", "154032.125000", "154032.125000", "154032.125000", "154032.125000", "154032.125000", "154032.125000", "154112.078000", "154112.078000", "154112.078000", "154112.078000", "154112.078000", "154112.078000", "154112.093000", "154112.093000", "154112.093000", "154112.093000", "154112.093000", "154112.093000", "154112.093000", "154112.093000", "154112.109000", "154112.109000", "154112.109000", "154112.109000", "154112.109000", "154112.109000", "154152.078000", "154152.078000", "154152.078000", "154152.078000", "154152.093000", "154152.093000", "154152.093000", "154152.093000", "154152.093000", "154152.109000", "154152.109000", "154152.109000", "154152.109000", "154152.109000", "154152.109000", "154152.109000", "154152.109000", "154152.125000", "154152.125000", "154152.125000", "154232.078000", "154232.078000", "154232.078000", "154232.078000", "154232.078000", "154232.078000", "154232.093000", "154232.093000", "154232.093000", "154232.093000", "154232.093000", "154232.093000", "154232.093000", "154232.093000", "154232.109000", "154232.109000", "154232.109000", "154232.109000", "154232.109000", "154232.109000", "154236.421000", "154236.421000", "154236.421000"],
      "InstanceCreationTime": ["153752.078000", "153752.078000", "153752.093000", "153752.093000", "153752.093000", "153752.093000", "153752.093000", "153752.093000", "153752.093000", "153752.093000", "153752.093000", "153752.109000", "153752.109000", "153752.109000", "153752.109000", "153752.109000", "153752.109000", "153752.109000", "153752.109000", "153752.125000", "153752.125000", "153832.078000", "153832.078000", "153832.078000", "153832.078000", "153832.078000", "153832.078000", "153832.093000", "153832.093000", "153832.093000", "153832.093000", "153832.093000", "153832.093000", "153832.093000", "153832.093000", "153832.109000", "153832.109000", "153832.109000", "153832.109000", "153832.109000", "153832.125000", "153912.078000", "153912.078000", "153912.078000", "153912.078000", "153912.078000", "153912.078000", "153912.093000", "153912.093000", "153912.093000", "153912.093000", "153912.093000", "153912.109000", "153912.109000", "153912.109000", "153912.109000", "153912.109000", "153912.109000", "153912.109000", "153912.109000", "153912.125000", "153952.078000", "153952.078000", "153952.078000", "153952.078000", "153952.093000", "153952.093000", "153952.093000", "153952.093000", "153952.093000", "153952.109000", "153952.109000", "153952.109000", "153952.109000", "153952.125000", "153952.125000", "153952.125000", "153952.125000", "153952.125000", "153952.125000", "153952.125000", "154032.078000", "154032.078000", "154032.078000", "154032.093000", "154032.093000", "154032.093000", "154032.093000", "154032.093000", "154032.109000", "154032.109000", "154032.109000", "154032.109000", "154032.125000", "154032.125000", "154032.125000", "154032.125000", "154032.125000", "154032.125000", "154032.125000", "154032.125000", "154112.078000", "154112.078000", "154112.078000", "154112.078000", "154112.078000", "154112.078000", "154112.093000", "154112.093000", "154112.093000", "154112.093000", "154112.093000", "154112.093000", "154112.093000", "154112.093000", "154112.109000", "154112.109000", "154112.109000", "154112.109000", "154112.109000", "154112.109000", "154152.078000", "154152.078000", "154152.078000", "154152.078000", "154152.093000", "154152.093000", "154152.093000", "154152.093000", "154152.093000", "154152.109000", "154152.109000", "154152.109000", "154152.109000", "154152.109000", "154152.109000", "154152.109000", "154152.109000", "154152.125000", "154152.125000", "154152.125000", "154232.078000", "154232.078000", "154232.078000", "154232.078000", "154232.078000", "154232.078000", "154232.093000", "154232.093000", "154232.093000", "154232.093000", "154232.093000", "154232.093000", "154232.093000", "154232.093000", "154232.109000", "154232.109000", "154232.109000", "154232.109000", "154232.109000", "154232.109000", "154236.421000", "154236.421000", "154236.421000"],
      "InstanceNumber": [1, 2, 3, 4, 5, 6, 7, 8, 9, 10, 11, 12, 13, 14, 15, 16, 17, 18, 19, 20, 21, 22, 23, 24, 25, 26, 27, 28, 29, 30, 31, 32, 33, 34, 35, 36, 37, 38, 39, 40, 41, 42, 43, 44, 45, 46, 47, 48, 49, 50, 51, 52, 53, 54, 55, 56, 57, 58, 59, 60, 61, 62, 63, 64, 65, 66, 67, 68, 69, 70, 71, 72, 73, 74, 75, 76, 77, 78, 79, 80, 81, 82, 83, 84, 85, 86, 87, 88, 89, 90, 91, 92, 93, 94, 95, 96, 97, 98, 99, 100, 101, 102, 103, 104, 105, 106, 107, 108, 109, 110, 111, 112, 113, 114, 115, 116, 117, 118, 119, 120, 121, 122, 123, 124, 125, 126, 127, 128, 129, 130, 131, 132, 133, 134, 135, 136, 137, 138, 139, 140, 141, 142, 143, 144, 145, 146, 147, 148, 149, 150, 151, 152, 153, 154, 155, 156, 157, 158, 159, 160, 161, 162, 163, 164],
      "LargestImagePixelValue": [1659, 1803, 1622, 1577, 1621, 1586, 1621, 1584, 1642, 1603, 1595, 1597, 1591, 1581, 1640, 1592, 1563, 1613, 1580, 1602, 1570, 1778, 1607, 1574, 1571, 1941, 1625, 1621, 1592, 1615, 1587, 1584, 1578, 1574, 1579, 1580, 1617, 1573, 1580, 1599, 1629, 1652, 1689, 1754, 1571, 1576, 1566, 1599, 1577, 1562, 1610, 1577, 1577, 1663, 1597, 1600, 1582, 1796, 1646, 1649, 1570, 1587, 1619, 1857, 1602, 1589, 1592, 1632, 1593, 1598, 1617, 1591, 1599, 1590, 1589, 1624, 1763, 1634, 1649, 1849, 1639, 1600, 1604, 1594, 1579, 1611, 1616, 1765, 1598, 1576, 1577, 1592, 1631, 1665, 1605, 1585, 1574, 1624, 1581, 1587, 1592, 1592, 1604, 1642, 1624, 1604, 1587, 1577, 1622, 1623, 1993, 1597, 1603, 1612, 1609, 1599, 1589, 1582, 1601, 1604, 1637, 1616, 1591, 1874, 1598, 1583, 1711, 1592, 1600, 1588, 1597, 1577, 1782, 1812, 1580, 1607, 1617, 1655, 1616, 1610, 1679, 1790, 1582, 1603, 1586, 1596, 1593, 1603, 1580, 1604, 1599, 1655, 1635, 2049, 1613, 1600, 1719, 1939, 1632, 1594, 1609, 1599, 1650, 1604],
      "WindowCenter": [722.0, 722.0, 721.0, 720.0, 720.0, 719.0, 719.0, 719.0, 719.0, 719.0, 720.0, 719.0, 718.0, 718.0, 719.0, 718.0, 718.0, 718.0, 717.0, 718.0, 718.0, 720.0, 719.0, 719.0, 718.0, 720.0, 718.0, 719.0, 718.0, 719.0, 719.0, 718.0, 718.0, 717.0, 718.0, 718.0, 719.0, 719.0, 719.0, 718.0, 718.0, 719.0, 718.0, 719.0, 717.0, 717.0, 717.0, 718.0, 718.0, 719.0, 719.0, 719.0, 719.0, 720.0, 719.0, 720.0, 720.0, 720.0, 719.0, 720.0, 719.0, 719.0, 719.0, 721.0, 719.0, 719.0, 720.0, 720.0, 718.0, 718.0, 718.0, 718.0, 718.0, 718.0, 718.0, 719.0, 721.0, 719.0, 719.0, 719.0, 719.0, 718.0, 719.0, 719.0, 719.0, 720.0, 720.0, 721.0, 719.0, 719.0, 718.0, 718.0, 718.0, 718.0, 718.0, 718.0, 718.0, 718.0, 718.0, 719.0, 720.0, 720.0, 719.0, 719.0, 718.0, 718.0, 719.0, 720.0, 720.0, 720.0, 722.0, 718.0, 720.0, 719.0, 719.0, 719.0, 718.0, 719.0, 718.0, 719.0, 720.0, 719.0, 721.0, 722.0, 720.0, 720.0, 721.0, 718.0, 719.0, 719.0, 720.0, 719.0, 720.0, 718.0, 717.0, 718.0, 719.0, 720.0, 720.0, 720.0, 720.0, 720.0, 718.0, 719.0, 718.0, 718.0, 719.0, 719.0, 719.0, 720.0, 720.0, 720.0, 721.0, 724.0, 721.0, 720.0, 723.0, 720.0, 718.0, 719.0, 720.0, 721.0, 721.0, 721.0],
      "WindowWidth": [1575.0, 1575.0, 1571.0, 1569.0, 1567.0, 1565.0, 1565.0, 1566.0, 1566.0, 1567.0, 1567.0, 1565.0, 1563.0, 1561.0, 1564.0, 1561.0, 1562.0, 1562.0, 1560.0, 1564.0, 1562.0, 1567.0, 1566.0, 1564.0, 1563.0, 1568.0, 1563.0, 1565.0, 1564.0, 1565.0, 1564.0, 1564.0, 1563.0, 1561.0, 1562.0, 1563.0, 1566.0, 1564.0, 1565.0, 1562.0, 1561.0, 1566.0, 1564.0, 1564.0, 1558.0, 1560.0, 1560.0, 1563.0, 1563.0, 1566.0, 1566.0, 1564.0, 1566.0, 1567.0, 1564.0, 1568.0, 1568.0, 1569.0, 1565.0, 1567.0, 1565.0, 1564.0, 1566.0, 1570.0, 1565.0, 1565.0, 1568.0, 1567.0, 1563.0, 1561.0, 1564.0, 1564.0, 1563.0, 1564.0, 1563.0, 1564.0, 1570.0, 1566.0, 1568.0, 1567.0, 1565.0, 1564.0, 1565.0, 1564.0, 1564.0, 1568.0, 1567.0, 1571.0, 1566.0, 1564.0, 1563.0, 1562.0, 1562.0, 1562.0, 1563.0, 1562.0, 1562.0, 1564.0, 1564.0, 1566.0, 1568.0, 1568.0, 1565.0, 1566.0, 1563.0, 1562.0, 1565.0, 1567.0, 1570.0, 1568.0, 1574.0, 1563.0, 1567.0, 1566.0, 1564.0, 1565.0, 1563.0, 1566.0, 1563.0, 1565.0, 1568.0, 1566.0, 1570.0, 1573.0, 1567.0, 1568.0, 1570.0, 1564.0, 1566.0, 1566.0, 1568.0, 1566.0, 1569.0, 1563.0, 1560.0, 1562.0, 1566.0, 1569.0, 1568.0, 1569.0, 1567.0, 1568.0, 1562.0, 1564.0, 1564.0, 1564.0, 1565.0, 1565.0, 1565.0, 1567.0, 1569.0, 1569.0, 1572.0, 1580.0, 1570.0, 1569.0, 1576.0, 1569.0, 1564.0, 1566.0, 1567.0, 1570.0, 1571.0, 1572.0]
    },
    "slices": {}
  }
}