{
  "AcquisitionMatrixPE": 64,
  "AcquisitionNumber": 1,
  "AcquisitionTime": "15:17:0.887500",
  "BandwidthPerPixelPhaseEncode": 33.967,
  "BaseResolution": 64,
  "CoilCombinationMethod": "Sum of Squares",
  "CoilString": "C:HEA;HEP",
  "ConversionSoftware": "dcm2niix",
  "ConversionSoftwareVersion": "v1.0.20220720",
  "DerivedVendorReportedEchoSpacing": 0.000460005,
  "DeviceSerialNumber": "35193",
  "DwellTime": 3.1e-06,
  "EchoTime": 0.03,
  "EffectiveEchoSpacing": 0.000460005,
  "FlipAngle": 90,
  "HeudiconvVersion": "1.1.6",
  "ImageOrientationPatientDICOM": [0.999925, -0.012217, 0, 0.012217, 0.999925, 0],
  "ImageOrientationText": "Tra",
  "ImageType": [
    "ORIGINAL",
    "PRIMARY",
    "M",
    "ND",
    "MOSAIC"
],
  "ImagingFrequency": 123.254,
  "InPlanePhaseEncodingDirectionDICOM": "COL",
  "InstitutionAddress": "Xinjiekouwai Street No 19,Beijing,Haidian District,CN,100875",
  "InstitutionName": "Beijing Normal Universtiy/2773C4/",
  "InstitutionalDepartmentName": "Department",
  "MRAcquisitionType": "2D",
  "MagneticFieldStrength": 3,
  "Manufacturer": "Siemens",
  "ManufacturersModelName": "TrioTim",
  "MatrixCoilMode": "SENSE",
  "Modality": "MR",
  "NonlinearGradientCorrection": false,
  "PartialFourier": 1,
  "PatientPosition": "HFS",
  "PercentPhaseFOV": 100,
  "PercentSampling": 100,
  "PhaseEncodingDirection": "j-",
  "PhaseEncodingSteps": 64,
  "PhaseResolution": 1,
  "PixelBandwidth": 2520,
  "ProcedureStepDescription": "BNU_cst_2015^Guo.TaoMei",
  "ProtocolName": "ge_func_3x3x4_164",
  "PulseSequenceDetails": "%SiemensSeq%\\ep2d_bold",
  "ReceiveCoilName": "HeadMatrix",
  "ReconMatrixPE": 64,
  "RepetitionTime": 2,
  "SAR": 0.138932,
  "ScanOptions": "FS",
  "ScanningSequence": "EP",
  "SequenceName": "*epfid2d1_64",
  "SequenceVariant": "SK",
  "SeriesDescription": "ge_func_3x3x4_164",
  "SeriesNumber": 2,
  "ShimSetting": [-4489, -19359, -9845, 877, -52, -551, 107, -58],
  "SliceThickness": 4,
  "SliceTiming": [0, 1.035, 0.06, 1.095, 0.1225, 1.155, 0.1825, 1.2175, 0.2425, 1.2775, 0.305, 1.3375, 0.365, 1.4, 0.425, 1.46, 0.4875, 1.52, 0.5475, 1.5825, 0.6075, 1.6425, 0.67, 1.7025, 0.73, 1.765, 0.79, 1.825, 0.8525, 1.885, 0.9125, 1.9475, 0.9725],
  "SoftwareVersions": "syngo MR B17",
  "SpacingBetweenSlices": 4.6,
  "StationName": "MRC35193",
  "TaskName": "CognitiveControl",
  "TotalReadoutTime": 0.0289803,
  "TxRefAmp": 340.956,
  "dcmmeta_affine": [
    [-3.1247668266296387, 0.038178011775016785, 0.0, 106.23070526123047],
    [0.038178011775016785, 3.1247668266296387, 0.0, -87.96898651123047],
    [0.0, 0.0, 4.599999904632568, -75.62409973144531],
    [0.0, 0.0, 0.0, 1.0]
],
  "dcmmeta_reorient_transform": [
    [0.0, -1.0, 0.0, 63.0],
    [1.0, 0.0, 0.0, 0.0],
    [0.0, 0.0, 1.0, 0.0],
    [0.0, 0.0, 0.0, 1.0]
],
  "dcmmeta_shape": [64, 64, 33, 164],
  "dcmmeta_slice_dim": 2,
  "dcmmeta_version": 0.6,
  "global": {
    "const": {
      "AcquisitionMatrix": [64, 0, 0, 64],
      "AngioFlag": "N",
      "BitsAllocated": 16,
      "BitsStored": 12,
      "Columns": 384,
      "EchoNumbers": 1,
      "EchoTime": 30.0,
      "EchoTrainLength": 1,
      "FlipAngle": 90.0,
      "HighBit": 11,
      "ImageOrientationPatient": [0.99992537012045, -0.0122169631855, 0.0, 0.01221696318555, 0.99992537012045, 0.0],
      "ImagePositionPatient": [-614.70708663292, -602.74552565203, -75.624099731445],
      "ImageType": [
        "ORIGINAL",
        "PRIMARY",
        "M",
        "ND",
        "MOSAIC"
],
      "ImagedNucleus": "1H",
      "ImagingFrequency": 123.253669,
      "InPlanePhaseEncodingDirection": "COL",
      "MRAcquisitionType": "2D",
      "MagneticFieldStrength": 3.0,
      "Manufacturer": "SIEMENS",
      "ManufacturerModelName": "TrioTim",
      "Modality": "MR",
      "NumberOfAverages": 1.0,
      "NumberOfPhaseEncodingSteps": 64,
      "PercentPhaseFieldOfView": 100.0,
      "PercentSampling": 100.0,
      "PerformedProcedureStepStartTime": "150144.859000",
      "PhotometricInterpretation": "MONOCHROME2",
      "PixelBandwidth": 2520.0,
      "PixelRepresentation": 0,
      "PixelSpacing": [3.125, 3.125],
      "ProtocolName": "ge_func_3x3x4_164",
      "RepetitionTime": 2000.0,
      "Rows": 384,
      "SAR": 0.13893178814579,
      "SamplesPerPixel": 1,
      "ScanOptions": "FS",
      "ScanningSequence": "EP",
      "SequenceName": "*epfid2d1_64",
      "SequenceVariant": "SK",
      "SeriesDescription": "ge_func_3x3x4_164",
      "SeriesNumber": 2,
      "SeriesTime": "151752.078000",
      "SliceLocation": -75.624099731445,
      "SliceThickness": 4.0,
      "SmallestImagePixelValue": 0,
      "SoftwareVersions": "syngo MR B17",
      "SpacingBetweenSlices": 4.6000001430511,
      "SpecificCharacterSet": "ISO_IR 100",
      "StudyID": "1",
      "StudyTime": "150144.796000",
      "TransmitCoilName": "Body",
      "VariableFlipAngleFlag": "N",
      "WindowCenterWidthExplanation": "Algo1",
      "dBdt": 0.0},
    "slices": {}
  },
  "time": {
    "samples": {
      "AcquisitionNumber": [1, 2, 3, 4, 5, 6, 7, 8, 9, 10, 11, 12, 13, 14, 15, 16, 17, 18, 19, 20, 21, 22, 23, 24, 25, 26, 27, 28, 29, 30, 31, 32, 33, 34, 35, 36, 37, 38, 39, 40, 41, 42, 43, 44, 45, 46, 47, 48, 49, 50, 51, 52, 53, 54, 55, 56, 57, 58, 59, 60, 61, 62, 63, 64, 65, 66, 67, 68, 69, 70, 71, 72, 73, 74, 75, 76, 77, 78, 79, 80, 81, 82, 83, 84, 85, 86, 87, 88, 89, 90, 91, 92, 93, 94, 95, 96, 97, 98, 99, 100, 101, 102, 103, 104, 105, 106, 107, 108, 109, 110, 111, 112, 113, 114, 115, 116, 117, 118, 119, 120, 121, 122, 123, 124, 125, 126, 127, 128, 129, 130, 131, 132, 133, 134, 135, 136, 137, 138, 139, 140, 141, 142, 143, 144, 145, 146, 147, 148, 149, 150, 151, 152, 153, 154, 155, 156, 157, 158, 159, 160, 161, 162, 163, 164],
      "AcquisitionTime": ["151700.887500", "151702.895000", "151704.902500", "151706.912500", "151708.920000", "151710.927500", "151712.935000", "151714.945000", "151716.952500", "151718.960000", "151720.967500", "151722.975000", "151724.985000", "151726.992500", "151729.000000", "151731.007500", "151733.015000", "151735.025000", "151737.032500", "151739.040000", "151741.047500", "151743.057500", "151745.065000", "151747.072500", "151749.080000", "151751.087500", "151753.097500", "151755.105000", "151757.112500", "151759.120000", "151801.127500", "151803.137500", "151805.145000", "151807.152500", "151809.160000", "151811.170000", "151813.177500", "151815.185000", "151817.192500", "151819.200000", "151821.210000", "151823.217500", "151825.225000", "151827.232500", "151829.240000", "151831.250000", "151833.257500", "151835.265000", "151837.272500", "151839.280000", "151841.290000", "151843.297500", "151845.305000", "151847.312500", "151849.322500", "151851.330000", "151853.337500", "151855.345000", "151857.352500", "151859.362500", "151901.370000", "151903.377500", "151905.385000", "151907.392500", "151909.402500", "151911.410000", "151913.417500", "151915.425000", "151917.435000", "151919.442500", "151921.450000", "151923.457500", "151925.465000", "151927.475000", "151929.482500", "151931.490000", "151933.497500", "151935.505000", "151937.515000", "151939.522500", "151941.530000", "151943.537500", "151945.547500", "151947.555000", "151949.562500", "151951.570000", "151953.577500", "151955.587500", "151957.595000", "151959.602500", "152001.610000", "152003.617500", "152005.627500", "152007.635000", "152009.642500", "152011.650000", "152013.657500", "152015.667500", "152017.675000", "152019.682500", "152021.690000", "152023.700000", "152025.707500", "152027.715000", "152029.722500", "152031.730000", "152033.740000", "152035.747500", "152037.755000", "152039.762500", "152041.770000", "152043.780000", "152045.787500", "152047.795000", "152049.802500", "152051.812500", "152053.820000", "152055.827500", "152057.835000", "152059.842500", "152101.852500", "152103.860000", "152105.867500", "152107.875000", "152109.882500", "152111.892500", "152113.900000", "152115.907500", "152117.915000", "152119.925000", "152121.932500", "152123.940000", "152125.947500", "152127.955000", "152129.965000", "152131.972500", "152133.980000", "152135.987500", "152137.995000", "152140.005000", "152142.012500", "152144.020000", "152146.027500", "152148.037500", "152150.045000", "152152.052500", "152154.060000", "152156.067500", "152158.077500", "152200.085000", "152202.092500", "152204.100000", "152206.107500", "152208.117500", "152210.125000", "152212.132500", "152214.140000", "152216.147500", "152218.157500", "152220.165000", "152222.172500", "152224.180000", "152226.190000", "152228.197500"],
      "ContentTime": ["151752.078000", "151752.078000", "151752.093000", "151752.093000", "151752.093000", "151752.093000", "151752.093000", "151752.093000", "151752.093000", "151752.093000", "151752.093000", "151752.109000", "151752.109000", "151752.109000", "151752.109000", "151752.109000", "151752.109000", "151752.109000", "151752.109000", "151752.125000", "151752.125000", "151752.125000", "151752.125000", "151752.140000", "151832.078000", "151832.078000", "151832.078000", "151832.078000", "151832.078000", "151832.093000", "151832.093000", "151832.093000", "151832.093000", "151832.093000", "151832.109000", "151832.109000", "151832.109000", "151832.109000", "151832.109000", "151832.109000", "151832.109000", "151832.109000", "151832.125000", "151832.125000", "151912.078000", "151912.078000", "151912.078000", "151912.078000", "151912.078000", "151912.078000", "151912.078000", "151912.093000", "151912.093000", "151912.093000", "151912.093000", "151912.109000", "151912.109000", "151912.109000", "151912.109000", "151912.109000", "151912.109000", "151912.109000", "151912.109000", "151912.125000", "151952.078000", "151952.078000", "151952.078000", "151952.078000", "151952.078000", "151952.093000", "151952.093000", "151952.093000", "151952.109000", "151952.109000", "151952.109000", "151952.109000", "151952.109000", "151952.109000", "151952.109000", "151952.125000", "151952.125000", "151952.125000", "151952.125000", "151952.125000", "152032.078000", "152032.078000", "152032.078000", "152032.093000", "152032.093000", "152032.093000", "152032.093000", "152032.093000", "152032.093000", "152032.093000", "152032.109000", "152032.109000", "152032.125000", "152032.125000", "152032.125000", "152032.125000", "152032.125000", "152032.125000", "152032.125000", "152032.140000", "152112.078000", "152112.078000", "152112.078000", "152112.078000", "152112.078000", "152112.078000", "152112.093000", "152112.093000", "152112.093000", "152112.093000", "152112.093000", "152112.093000", "152112.093000", "152112.093000", "152112.109000", "152112.109000", "152112.109000", "152112.109000", "152112.109000", "152112.109000", "152152.078000", "152152.078000", "152152.078000", "152152.078000", "152152.093000", "152152.093000", "152152.093000", "152152.093000", "152152.093000", "152152.109000", "152152.109000", "152152.109000", "152152.109000", "152152.109000", "152152.109000", "152152.109000", "152152.125000", "152152.125000", "152152.125000", "152152.125000", "152230.484000", "152230.484000", "152230.484000", "152230.484000", "152230.500000", "152230.500000", "152230.500000", "152230.500000", "152230.500000", "152230.500000", "152230.500000", "152230.500000", "152230.515000", "152230.515000", "152230.515000", "152230.515000", "152230.515000", "152230.515000", "152230.531000", "152230.531000"],
      "InstanceCreationTime": ["151752.078000", "151752.078000", "151752.093000", "151752.093000", "151752.093000", "151752.093000", "151752.093000", "151752.093000", "151752.093000", "151752.093000", "151752.093000", "151752.109000", "151752.109000", "151752.109000", "151752.109000", "151752.109000", "151752.109000", "151752.109000", "151752.109000", "151752.125000", "151752.125000", "151752.125000", "151752.125000", "151752.140000", "151832.078000", "151832.078000", "151832.078000", "151832.078000", "151832.078000", "151832.093000", "151832.093000", "151832.093000", "151832.093000", "151832.093000", "151832.109000", "151832.109000", "151832.109000", "151832.109000", "151832.109000", "151832.109000", "151832.109000", "151832.109000", "151832.125000", "151832.125000", "151912.078000", "151912.078000", "151912.078000", "151912.078000", "151912.078000", "151912.078000", "151912.078000", "151912.093000", "151912.093000", "151912.093000", "151912.093000", "151912.109000", "151912.109000", "151912.109000", "151912.109000", "151912.109000", "151912.109000", "151912.109000", "151912.109000", "151912.125000", "151952.078000", "151952.078000", "151952.078000", "151952.078000", "151952.078000", "151952.093000", "151952.093000", "151952.093000", "151952.109000", "151952.109000", "151952.109000", "151952.109000", "151952.109000", "151952.109000", "151952.109000", "151952.125000", "151952.125000", "151952.125000", "151952.125000", "151952.125000", "152032.078000", "152032.078000", "152032.078000", "152032.093000", "152032.093000", "152032.093000", "152032.093000", "152032.093000", "152032.093000", "152032.093000", "152032.109000", "152032.109000", "152032.125000", "152032.125000", "152032.125000", "152032.125000", "152032.125000", "152032.125000", "152032.125000", "152032.140000", "152112.078000", "152112.078000", "152112.078000", "152112.078000", "152112.078000", "152112.078000", "152112.093000", "152112.093000", "152112.093000", "152112.093000", "152112.093000", "152112.093000", "152112.093000", "152112.093000", "152112.109000", "152112.109000", "152112.109000", "152112.109000", "152112.109000", "152112.109000", "152152.078000", "152152.078000", "152152.078000", "152152.078000", "152152.093000", "152152.093000", "152152.093000", "152152.093000", "152152.093000", "152152.109000", "152152.109000", "152152.109000", "152152.109000", "152152.109000", "152152.109000", "152152.109000", "152152.125000", "152152.125000", "152152.125000", "152152.125000", "152230.484000", "152230.484000", "152230.484000", "152230.484000", "152230.500000", "152230.500000", "152230.500000", "152230.500000", "152230.500000", "152230.500000", "152230.500000", "152230.500000", "152230.515000", "152230.515000", "152230.515000", "152230.515000", "152230.515000", "152230.515000", "152230.531000", "152230.531000"],
      "InstanceNumber": [1, 2, 3, 4, 5, 6, 7, 8, 9, 10, 11, 12, 13, 14, 15, 16, 17, 18, 19, 20, 21, 22, 23, 24, 25, 26, 27, 28, 29, 30, 31, 32, 33, 34, 35, 36, 37, 38, 39, 40, 41, 42, 43, 44, 45, 46, 47, 48, 49, 50, 51, 52, 53, 54, 55, 56, 57, 58, 59, 60, 61, 62, 63, 64, 65, 66, 67, 68, 69, 70, 71, 72, 73, 74, 75, 76, 77, 78, 79, 80, 81, 82, 83, 84, 85, 86, 87, 88, 89, 90, 91, 92, 93, 94, 95, 96, 97, 98, 99, 100, 101, 102, 103, 104, 105, 106, 107, 108, 109, 110, 111, 112, 113, 114, 115, 116, 117, 118, 119, 120, 121, 122, 123, 124, 125, 126, 127, 128, 129, 130, 131, 132, 133, 134, 135, 136, 137, 138, 139, 140, 141, 142, 143, 144, 145, 146, 147, 148, 149, 150, 151, 152, 153, 154, 155, 156, 157, 158, 159, 160, 161, 162, 163, 164],
      "LargestImagePixelValue": [1707, 1690, 1676, 1683, 1663, 1673, 1671, 1659, 1642, 1651, 1649, 1666, 1648, 1654, 1677, 1640, 1648, 1637, 1643, 1637, 1654, 1653, 1655, 1657, 1645, 1638, 1653, 1716, 1651, 1654, 1655, 1643, 1650, 1721, 1650, 1638, 1644, 1633, 1641, 1638, 1657, 1669, 1681, 1643, 1652, 1651, 1646, 1652, 1663, 1644, 1649, 1654, 1657, 1650, 1695, 1666, 1651, 1647, 1646, 1645, 1640, 1649, 1646, 1635, 1658, 1658, 1673, 1661, 1640, 1646, 1660, 1641, 1633, 1644, 1647, 1644, 1633, 1632, 1636, 1634, 1639, 1657, 1643, 1651, 1651, 1653, 1696, 1653, 1675, 1652, 1645, 1658, 1662, 1631, 1651, 1654, 1656, 1666, 1672, 1657, 1655, 1654, 1645, 1634, 1631, 1645, 1668, 1638, 1804, 1653, 1646, 1637, 1638, 1637, 1639, 1629, 1641, 1623, 1642, 1652, 1652, 1639, 1652, 1646, 1650, 1637, 1646, 1643, 1640, 1649, 1662, 1641, 1647, 1656, 1655, 1653, 1651, 1642, 1649, 1650, 1759, 1648, 1654, 1650, 1637, 1768, 1627, 1645, 1662, 1675, 1687, 1660, 1641, 1654, 1627, 1665, 1640, 1656, 1658, 1807, 1652, 1636, 1641, 1674],
      "WindowCenter": [719.0, 718.0, 717.0, 717.0, 717.0, 717.0, 717.0, 716.0, 716.0, 716.0, 716.0, 716.0, 716.0, 716.0, 716.0, 716.0, 715.0, 715.0, 716.0, 716.0, 716.0, 716.0, 716.0, 716.0, 716.0, 716.0, 716.0, 717.0, 716.0, 716.0, 717.0, 716.0, 716.0, 717.0, 716.0, 716.0, 716.0, 716.0, 716.0, 717.0, 716.0, 716.0, 716.0, 716.0, 716.0, 716.0, 716.0, 716.0, 716.0, 717.0, 716.0, 717.0, 716.0, 717.0, 717.0, 716.0, 716.0, 716.0, 716.0, 716.0, 716.0, 717.0, 717.0, 717.0, 717.0, 717.0, 718.0, 717.0, 717.0, 716.0, 716.0, 716.0, 716.0, 716.0, 716.0, 716.0, 716.0, 716.0, 716.0, 716.0, 716.0, 716.0, 717.0, 716.0, 716.0, 716.0, 716.0, 716.0, 717.0, 717.0, 717.0, 717.0, 716.0, 717.0, 717.0, 717.0, 717.0, 717.0, 716.0, 716.0, 716.0, 715.0, 717.0, 717.0, 716.0, 716.0, 716.0, 716.0, 716.0, 716.0, 716.0, 716.0, 716.0, 716.0, 717.0, 716.0, 716.0, 716.0, 716.0, 716.0, 717.0, 717.0, 717.0, 716.0, 716.0, 716.0, 717.0, 717.0, 717.0, 716.0, 717.0, 717.0, 717.0, 717.0, 717.0, 717.0, 717.0, 717.0, 718.0, 718.0, 718.0, 717.0, 717.0, 718.0, 716.0, 717.0, 716.0, 717.0, 718.0, 718.0, 718.0, 718.0, 718.0, 718.0, 718.0, 718.0, 717.0, 717.0, 717.0, 718.0, 717.0, 717.0, 718.0, 717.0],
      "WindowWidth": [1567.0, 1564.0, 1561.0, 1561.0, 1560.0, 1560.0, 1559.0, 1557.0, 1557.0, 1557.0, 1557.0, 1558.0, 1556.0, 1557.0, 1558.0, 1557.0, 1555.0, 1556.0, 1557.0, 1556.0, 1556.0, 1558.0, 1558.0, 1558.0, 1556.0, 1557.0, 1557.0, 1559.0, 1558.0, 1558.0, 1559.0, 1558.0, 1559.0, 1559.0, 1559.0, 1558.0, 1558.0, 1558.0, 1558.0, 1559.0, 1559.0, 1559.0, 1558.0, 1558.0, 1558.0, 1557.0, 1558.0, 1558.0, 1559.0, 1559.0, 1559.0, 1559.0, 1558.0, 1561.0, 1560.0, 1558.0, 1559.0, 1559.0, 1559.0, 1558.0, 1559.0, 1559.0, 1559.0, 1560.0, 1560.0, 1562.0, 1564.0, 1561.0, 1559.0, 1558.0, 1558.0, 1557.0, 1557.0, 1557.0, 1557.0, 1557.0, 1556.0, 1556.0, 1556.0, 1558.0, 1557.0, 1559.0, 1559.0, 1559.0, 1558.0, 1558.0, 1558.0, 1558.0, 1560.0, 1559.0, 1559.0, 1560.0, 1557.0, 1559.0, 1560.0, 1561.0, 1561.0, 1560.0, 1558.0, 1557.0, 1556.0, 1556.0, 1559.0, 1559.0, 1558.0, 1558.0, 1559.0, 1558.0, 1559.0, 1558.0, 1558.0, 1558.0, 1558.0, 1557.0, 1559.0, 1559.0, 1557.0, 1556.0, 1558.0, 1558.0, 1559.0, 1560.0, 1559.0, 1557.0, 1557.0, 1558.0, 1560.0, 1560.0, 1559.0, 1557.0, 1559.0, 1559.0, 1561.0, 1561.0, 1560.0, 1560.0, 1560.0, 1561.0, 1562.0, 1561.0, 1563.0, 1561.0, 1561.0, 1561.0, 1558.0, 1560.0, 1558.0, 1561.0, 1562.0, 1563.0, 1563.0, 1562.0, 1562.0, 1563.0, 1562.0, 1561.0, 1561.0, 1561.0, 1561.0, 1563.0, 1559.0, 1560.0, 1562.0, 1561.0]
    },
    "slices": {}
  }
}