{
  "AcquisitionMatrixPE": 64,
  "AcquisitionNumber": 1,
  "AcquisitionTime": "11:23:40.317500",
  "BandwidthPerPixelPhaseEncode": 33.967,
  "BaseResolution": 64,
  "CoilCombinationMethod": "Sum of Squares",
  "CoilString": "C:HEA;HEP",
  "ConversionSoftware": "dcm2niix",
  "ConversionSoftwareVersion": "v1.0.20220720",
  "DerivedVendorReportedEchoSpacing": 0.000460005,
  "DeviceSerialNumber": "35193",
  "DwellTime": 3.1e-06,
  "EchoTime": 0.03,
  "EffectiveEchoSpacing": 0.000460005,
  "FlipAngle": 90,
  "HeudiconvVersion": "1.1.6",
  "ImageOrientationPatientDICOM": [0.999469, 0.00872657, 0.0314096, -0.00872227, 0.999962, -0.000274108],
  "ImageOrientationText": "Tra>Sag(1.8)",
  "ImageType": [
    "ORIGINAL",
    "PRIMARY",
    "M",
    "ND",
    "MOSAIC"
],
  "ImagingFrequency": 123.254,
  "InPlanePhaseEncodingDirectionDICOM": "COL",
  "InstitutionAddress": "Xinjiekouwai Street No 19,Beijing,Haidian District,CN,100875",
  "InstitutionName": "BNU MRI Center",
  "InstitutionalDepartmentName": "Department",
  "MRAcquisitionType": "2D",
  "MagneticFieldStrength": 3,
  "Manufacturer": "Siemens",
  "ManufacturersModelName": "TrioTim",
  "MatrixCoilMode": "SENSE",
  "Modality": "MR",
  "NonlinearGradientCorrection": false,
  "PartialFourier": 1,
  "PatientPosition": "HFS",
  "PercentPhaseFOV": 100,
  "PercentSampling": 100,
  "PhaseEncodingDirection": "j-",
  "PhaseEncodingSteps": 64,
  "PhaseResolution": 1,
  "PixelBandwidth": 2520,
  "ProcedureStepDescription": "BNU_cst_2015^Guo.TaoMei",
  "ProtocolName": "ge_func_3x3x4_164",
  "PulseSequenceDetails": "%SiemensSeq%\\ep2d_bold",
  "ReceiveCoilName": "HeadMatrix",
  "ReconMatrixPE": 64,
  "RepetitionTime": 2,
  "SAR": 0.123899,
  "ScanOptions": "FS",
  "ScanningSequence": "EP",
  "SequenceName": "*epfid2d1_64",
  "SequenceVariant": "SK",
  "SeriesDescription": "ge_func_3x3x4_164",
  "SeriesNumber": 4,
  "ShimSetting": [-4500, -19384, -9852, 1299, -163, -312, 158, 32],
  "SliceThickness": 4,
  "SliceTiming": [0, 1.0325, 0.06, 1.095, 0.12, 1.155, 0.1825, 1.215, 0.2425, 1.2775, 0.3025, 1.3375, 0.365, 1.3975, 0.425, 1.46, 0.485, 1.52, 0.5475, 1.58, 0.6075, 1.6425, 0.6675, 1.7025, 0.73, 1.7625, 0.79, 1.825, 0.85, 1.885, 0.9125, 1.945, 0.9725],
  "SoftwareVersions": "syngo MR B17",
  "SpacingBetweenSlices": 4.6,
  "StationName": "MRC35193",
  "TaskName": "CognitiveControl",
  "TotalReadoutTime": 0.0289803,
  "TxRefAmp": 336.61,
  "dcmmeta_affine": [
    [-3.1233391761779785, -0.027257077395915985, 0.14448948204517365, 92.40769958496094],
    [-0.02727053500711918, 3.1248810291290283, 1.0878691281135389e-09, -88.57696533203125],
    [0.09815488010644913, 0.0008565874304622412, 4.5977301597595215, -77.40589141845703],
    [0.0, 0.0, 0.0, 1.0]
],
  "dcmmeta_reorient_transform": [
    [0.0, -1.0, 0.0, 63.0],
    [1.0, 0.0, 0.0, 0.0],
    [0.0, 0.0, 1.0, 0.0],
    [0.0, 0.0, 0.0, 1.0]
],
  "dcmmeta_shape": [64, 64, 33, 164],
  "dcmmeta_slice_dim": 2,
  "dcmmeta_version": 0.6,
  "global": {
    "const": {
      "AcquisitionMatrix": [64, 0, 0, 64],
      "AngioFlag": "N",
      "BitsAllocated": 16,
      "BitsStored": 12,
      "Columns": 384,
      "EchoNumbers": 1,
      "EchoTime": 30.0,
      "EchoTrainLength": 1,
      "FlipAngle": 90.0,
      "HighBit": 11,
      "ImageOrientationPatient": [0.99946850193848, 0.00872657107378, 0.03140956208152, -0.0087222650454, 0.99996192275371, -0.0002741079768],
      "ImagePositionPatient": [-586.06362119466, -612.63478294582, -92.919652894945],
      "ImageType": [
        "ORIGINAL",
        "PRIMARY",
        "M",
        "ND",
        "MOSAIC"
],
      "ImagedNucleus": "1H",
      "ImagingFrequency": 123.253707,
      "InPlanePhaseEncodingDirection": "COL",
      "MRAcquisitionType": "2D",
      "MagneticFieldStrength": 3.0,
      "Manufacturer": "SIEMENS",
      "ManufacturerModelName": "TrioTim",
      "Modality": "MR",
      "NumberOfAverages": 1.0,
      "NumberOfPhaseEncodingSteps": 64,
      "PercentPhaseFieldOfView": 100.0,
      "PercentSampling": 100.0,
      "PerformedProcedureStepStartTime": "110752.218000",
      "PhotometricInterpretation": "MONOCHROME2",
      "PixelBandwidth": 2520.0,
      "PixelRepresentation": 0,
      "PixelSpacing": [3.125, 3.125],
      "ProtocolName": "ge_func_3x3x4_164",
      "RepetitionTime": 2000.0,
      "Rows": 384,
      "SAR": 0.12389906803596,
      "SamplesPerPixel": 1,
      "ScanOptions": "FS",
      "ScanningSequence": "EP",
      "SequenceName": "*epfid2d1_64",
      "SequenceVariant": "SK",
      "SeriesDescription": "ge_func_3x3x4_164",
      "SeriesNumber": 4,
      "SeriesTime": "112428.468000",
      "SliceLocation": -74.465099868219,
      "SliceThickness": 4.0,
      "SmallestImagePixelValue": 0,
      "SoftwareVersions": "syngo MR B17",
      "SpacingBetweenSlices": 4.5999999820149,
      "SpecificCharacterSet": "ISO_IR 100",
      "StudyID": "1",
      "StudyTime": "110751.390000",
      "TransmitCoilName": "Body",
      "VariableFlipAngleFlag": "N",
      "WindowCenterWidthExplanation": "Algo1",
      "dBdt": 0.0},
    "slices": {}
  },
  "time": {
    "samples": {
      "AcquisitionNumber": [1, 2, 3, 4, 5, 6, 7, 8, 9, 10, 11, 12, 13, 14, 15, 16, 17, 18, 19, 20, 21, 22, 23, 24, 25, 26, 27, 28, 29, 30, 31, 32, 33, 34, 35, 36, 37, 38, 39, 40, 41, 42, 43, 44, 45, 46, 47, 48, 49, 50, 51, 52, 53, 54, 55, 56, 57, 58, 59, 60, 61, 62, 63, 64, 65, 66, 67, 68, 69, 70, 71, 72, 73, 74, 75, 76, 77, 78, 79, 80, 81, 82, 83, 84, 85, 86, 87, 88, 89, 90, 91, 92, 93, 94, 95, 96, 97, 98, 99, 100, 101, 102, 103, 104, 105, 106, 107, 108, 109, 110, 111, 112, 113, 114, 115, 116, 117, 118, 119, 120, 121, 122, 123, 124, 125, 126, 127, 128, 129, 130, 131, 132, 133, 134, 135, 136, 137, 138, 139, 140, 141, 142, 143, 144, 145, 146, 147, 148, 149, 150, 151, 152, 153, 154, 155, 156, 157, 158, 159, 160, 161, 162, 163, 164],
      "AcquisitionTime": ["112340.317500", "112342.325000", "112344.332500", "112346.340000", "112348.350000", "112350.357500", "112352.365000", "112354.372500", "112356.380000", "112358.390000", "112400.397500", "112402.405000", "112404.412500", "112406.422500", "112408.430000", "112410.437500", "112412.445000", "112414.452500", "112416.462500", "112418.470000", "112420.477500", "112422.485000", "112424.492500", "112426.502500", "112428.510000", "112430.517500", "112432.525000", "112434.535000", "112436.542500", "112438.550000", "112440.557500", "112442.565000", "112444.575000", "112446.582500", "112448.590000", "112450.597500", "112452.605000", "112454.615000", "112456.622500", "112458.630000", "112500.637500", "112502.645000", "112504.655000", "112506.662500", "112508.670000", "112510.677500", "112512.687500", "112514.695000", "112516.702500", "112518.710000", "112520.717500", "112522.727500", "112524.735000", "112526.742500", "112528.750000", "112530.757500", "112532.767500", "112534.775000", "112536.782500", "112538.790000", "112540.800000", "112542.807500", "112544.815000", "112546.822500", "112548.830000", "112550.840000", "112552.847500", "112554.855000", "112556.862500", "112558.870000", "112600.880000", "112602.887500", "112604.895000", "112606.902500", "112608.912500", "112610.920000", "112612.927500", "112614.935000", "112616.942500", "112618.952500", "112620.960000", "112622.967500", "112624.975000", "112626.982500", "112628.992500", "112631.000000", "112633.007500", "112635.015000", "112637.025000", "112639.032500", "112641.040000", "112643.047500", "112645.055000", "112647.065000", "112649.072500", "112651.080000", "112653.087500", "112655.095000", "112657.105000", "112659.112500", "112701.120000", "112703.127500", "112705.135000", "112707.145000", "112709.152500", "112711.160000", "112713.167500", "112715.177500", "112717.185000", "112719.192500", "112721.200000", "112723.207500", "112725.217500", "112727.225000", "112729.232500", "112731.240000", "112733.247500", "112735.257500", "112737.265000", "112739.272500", "112741.280000", "112743.290000", "112745.297500", "112747.305000", "112749.312500", "112751.320000", "112753.330000", "112755.337500", "112757.345000", "112759.352500", "112801.360000", "112803.370000", "112805.377500", "112807.385000", "112809.392500", "112811.402500", "112813.410000", "112815.417500", "112817.425000", "112819.432500", "112821.442500", "112823.450000", "112825.457500", "112827.465000", "112829.472500", "112831.482500", "112833.490000", "112835.497500", "112837.505000", "112839.512500", "112841.522500", "112843.530000", "112845.537500", "112847.545000", "112849.555000", "112851.562500", "112853.570000", "112855.577500", "112857.585000", "112859.595000", "112901.602500", "112903.610000", "112905.617500", "112907.625000"],
      "ContentTime": ["112428.468000", "112428.484000", "112428.484000", "112428.484000", "112428.484000", "112428.484000", "112428.484000", "112428.500000", "112428.500000", "112428.500000", "112428.500000", "112428.500000", "112428.515000", "112428.515000", "112428.515000", "112428.515000", "112428.515000", "112428.515000", "112428.531000", "112428.531000", "112428.531000", "112428.531000", "112428.531000", "112508.468000", "112508.468000", "112508.468000", "112508.468000", "112508.484000", "112508.484000", "112508.484000", "112508.484000", "112508.500000", "112508.500000", "112508.500000", "112508.500000", "112508.515000", "112508.515000", "112508.515000", "112508.515000", "112508.515000", "112508.515000", "112508.515000", "112508.531000", "112548.468000", "112548.468000", "112548.468000", "112548.468000", "112548.484000", "112548.484000", "112548.484000", "112548.484000", "112548.484000", "112548.484000", "112548.484000", "112548.484000", "112548.500000", "112548.500000", "112548.500000", "112548.500000", "112548.500000", "112548.500000", "112548.500000", "112548.515000", "112628.468000", "112628.468000", "112628.468000", "112628.468000", "112628.484000", "112628.484000", "112628.484000", "112628.484000", "112628.500000", "112628.500000", "112628.500000", "112628.500000", "112628.515000", "112628.515000", "112628.515000", "112628.531000", "112628.531000", "112628.531000", "112628.531000", "112628.531000", "112708.468000", "112708.468000", "112708.468000", "112708.468000", "112708.484000", "112708.484000", "112708.484000", "112708.484000", "112708.500000", "112708.500000", "112708.500000", "112708.500000", "112708.500000", "112708.500000", "112708.500000", "112708.515000", "112708.515000", "112708.515000", "112708.515000", "112708.515000", "112748.468000", "112748.468000", "112748.468000", "112748.468000", "112748.484000", "112748.484000", "112748.484000", "112748.484000", "112748.484000", "112748.484000", "112748.484000", "112748.484000", "112748.500000", "112748.500000", "112748.500000", "112748.500000", "112748.500000", "112748.500000", "112748.500000", "112748.515000", "112808.468000", "112808.468000", "112808.468000", "112808.468000", "112808.484000", "112808.484000", "112808.484000", "112808.484000", "112808.484000", "112808.484000", "112848.468000", "112848.468000", "112848.484000", "112848.484000", "112848.484000", "112848.484000", "112848.484000", "112848.484000", "112848.484000", "112848.500000", "112848.500000", "112848.500000", "112848.500000", "112848.500000", "112848.500000", "112848.500000", "112848.515000", "112848.515000", "112848.515000", "112848.515000", "112908.968000", "112908.968000", "112908.968000", "112908.984000", "112908.984000", "112908.984000", "112908.984000", "112909.000000", "112909.000000", "112909.000000", "112909.000000"],
      "InstanceCreationTime": ["112428.468000", "112428.484000", "112428.484000", "112428.484000", "112428.484000", "112428.484000", "112428.484000", "112428.500000", "112428.500000", "112428.500000", "112428.500000", "112428.500000", "112428.515000", "112428.515000", "112428.515000", "112428.515000", "112428.515000", "112428.515000", "112428.531000", "112428.531000", "112428.531000", "112428.531000", "112428.531000", "112508.468000", "112508.468000", "112508.468000", "112508.468000", "112508.484000", "112508.484000", "112508.484000", "112508.484000", "112508.500000", "112508.500000", "112508.500000", "112508.500000", "112508.515000", "112508.515000", "112508.515000", "112508.515000", "112508.515000", "112508.515000", "112508.515000", "112508.531000", "112548.468000", "112548.468000", "112548.468000", "112548.468000", "112548.484000", "112548.484000", "112548.484000", "112548.484000", "112548.484000", "112548.484000", "112548.484000", "112548.484000", "112548.500000", "112548.500000", "112548.500000", "112548.500000", "112548.500000", "112548.500000", "112548.500000", "112548.515000", "112628.468000", "112628.468000", "112628.468000", "112628.468000", "112628.484000", "112628.484000", "112628.484000", "112628.484000", "112628.500000", "112628.500000", "112628.500000", "112628.500000", "112628.515000", "112628.515000", "112628.515000", "112628.531000", "112628.531000", "112628.531000", "112628.531000", "112628.531000", "112708.468000", "112708.468000", "112708.468000", "112708.468000", "112708.484000", "112708.484000", "112708.484000", "112708.484000", "112708.500000", "112708.500000", "112708.500000", "112708.500000", "112708.500000", "112708.500000", "112708.500000", "112708.515000", "112708.515000", "112708.515000", "112708.515000", "112708.515000", "112748.468000", "112748.468000", "112748.468000", "112748.468000", "112748.484000", "112748.484000", "112748.484000", "112748.484000", "112748.484000", "112748.484000", "112748.484000", "112748.484000", "112748.500000", "112748.500000", "112748.500000", "112748.500000", "112748.500000", "112748.500000", "112748.500000", "112748.515000", "112808.468000", "112808.468000", "112808.468000", "112808.468000", "112808.484000", "112808.484000", "112808.484000", "112808.484000", "112808.484000", "112808.484000", "112848.468000", "112848.468000", "112848.484000", "112848.484000", "112848.484000", "112848.484000", "112848.484000", "112848.484000", "112848.484000", "112848.500000", "112848.500000", "112848.500000", "112848.500000", "112848.500000", "112848.500000", "112848.500000", "112848.515000", "112848.515000", "112848.515000", "112848.515000", "112908.968000", "112908.968000", "112908.968000", "112908.984000", "112908.984000", "112908.984000", "112908.984000", "112909.000000", "112909.000000", "112909.000000", "112909.000000"],
      "InstanceNumber": [1, 2, 3, 4, 5, 6, 7, 8, 9, 10, 11, 12, 13, 14, 15, 16, 17, 18, 19, 20, 21, 22, 23, 24, 25, 26, 27, 28, 29, 30, 31, 32, 33, 34, 35, 36, 37, 38, 39, 40, 41, 42, 43, 44, 45, 46, 47, 48, 49, 50, 51, 52, 53, 54, 55, 56, 57, 58, 59, 60, 61, 62, 63, 64, 65, 66, 67, 68, 69, 70, 71, 72, 73, 74, 75, 76, 77, 78, 79, 80, 81, 82, 83, 84, 85, 86, 87, 88, 89, 90, 91, 92, 93, 94, 95, 96, 97, 98, 99, 100, 101, 102, 103, 104, 105, 106, 107, 108, 109, 110, 111, 112, 113, 114, 115, 116, 117, 118, 119, 120, 121, 122, 123, 124, 125, 126, 127, 128, 129, 130, 131, 132, 133, 134, 135, 136, 137, 138, 139, 140, 141, 142, 143, 144, 145, 146, 147, 148, 149, 150, 151, 152, 153, 154, 155, 156, 157, 158, 159, 160, 161, 162, 163, 164],
      "LargestImagePixelValue": [1996, 1825, 1810, 1813, 1815, 1799, 1828, 1813, 1807, 1839, 1809, 1820, 1814, 1819, 1818, 1815, 1825, 1814, 1817, 1813, 1816, 1817, 1825, 1815, 1815, 1823, 1819, 1813, 1814, 1817, 1827, 1830, 1813, 1818, 1814, 1826, 1812, 1821, 1820, 1834, 1812, 1828, 1832, 1823, 1813, 1820, 1818, 1825, 1816, 1818, 1816, 1810, 1821, 1833, 1811, 1834, 1833, 1844, 1809, 1847, 1828, 1838, 1821, 1843, 1838, 1848, 1828, 1850, 1832, 1838, 1832, 1843, 1853, 1836, 1837, 1837, 1844, 1850, 1836, 1847, 1845, 1849, 1845, 1841, 1855, 1870, 1868, 1871, 1851, 1860, 1859, 1874, 1849, 1864, 1850, 1856, 1853, 1855, 1855, 1862, 1860, 1875, 1861, 1872, 1858, 1862, 1862, 1861, 1854, 1873, 1863, 1882, 1861, 1856, 1851, 1830, 1860, 1842, 1871, 1858, 1874, 1862, 1869, 1869, 1876, 1874, 1873, 1871, 1865, 1883, 1870, 1869, 1864, 1874, 1866, 1874, 1872, 1852, 1886, 1867, 1874, 1865, 1878, 1865, 1853, 1868, 1886, 1863, 1894, 1879, 1892, 1891, 1867, 1879, 1881, 1887, 1875, 1872, 1874, 1884, 1880, 1894, 1869, 1894],
      "WindowCenter": [730.0, 726.0, 726.0, 726.0, 725.0, 725.0, 725.0, 725.0, 725.0, 725.0, 724.0, 724.0, 724.0, 724.0, 725.0, 725.0, 725.0, 725.0, 725.0, 725.0, 725.0, 725.0, 726.0, 725.0, 726.0, 725.0, 726.0, 726.0, 727.0, 727.0, 728.0, 728.0, 727.0, 726.0, 726.0, 726.0, 726.0, 726.0, 727.0, 727.0, 727.0, 728.0, 727.0, 727.0, 726.0, 726.0, 727.0, 727.0, 726.0, 726.0, 727.0, 727.0, 727.0, 727.0, 727.0, 727.0, 727.0, 727.0, 726.0, 726.0, 727.0, 728.0, 727.0, 727.0, 726.0, 726.0, 726.0, 727.0, 726.0, 727.0, 727.0, 728.0, 729.0, 728.0, 727.0, 727.0, 727.0, 729.0, 729.0, 729.0, 728.0, 728.0, 728.0, 728.0, 728.0, 728.0, 728.0, 728.0, 727.0, 727.0, 728.0, 728.0, 727.0, 728.0, 728.0, 727.0, 727.0, 728.0, 728.0, 728.0, 728.0, 728.0, 727.0, 727.0, 727.0, 727.0, 727.0, 728.0, 728.0, 729.0, 728.0, 728.0, 726.0, 726.0, 727.0, 727.0, 728.0, 728.0, 729.0, 728.0, 728.0, 728.0, 727.0, 728.0, 728.0, 728.0, 728.0, 728.0, 727.0, 727.0, 727.0, 727.0, 727.0, 728.0, 728.0, 729.0, 728.0, 727.0, 727.0, 728.0, 728.0, 728.0, 728.0, 728.0, 728.0, 728.0, 728.0, 728.0, 728.0, 728.0, 729.0, 729.0, 730.0, 729.0, 728.0, 727.0, 727.0, 727.0, 727.0, 728.0, 729.0, 729.0, 728.0, 728.0],
      "WindowWidth": [1585.0, 1576.0, 1575.0, 1574.0, 1573.0, 1572.0, 1573.0, 1573.0, 1572.0, 1572.0, 1570.0, 1570.0, 1569.0, 1570.0, 1572.0, 1572.0, 1572.0, 1573.0, 1572.0, 1572.0, 1573.0, 1573.0, 1573.0, 1572.0, 1574.0, 1572.0, 1574.0, 1573.0, 1577.0, 1577.0, 1580.0, 1579.0, 1578.0, 1575.0, 1574.0, 1574.0, 1575.0, 1575.0, 1576.0, 1577.0, 1578.0, 1579.0, 1578.0, 1576.0, 1575.0, 1575.0, 1578.0, 1577.0, 1575.0, 1574.0, 1576.0, 1577.0, 1578.0, 1577.0, 1578.0, 1579.0, 1579.0, 1576.0, 1575.0, 1576.0, 1577.0, 1580.0, 1578.0, 1578.0, 1574.0, 1574.0, 1575.0, 1577.0, 1575.0, 1577.0, 1577.0, 1581.0, 1583.0, 1579.0, 1577.0, 1577.0, 1578.0, 1583.0, 1582.0, 1582.0, 1581.0, 1581.0, 1581.0, 1580.0, 1580.0, 1581.0, 1580.0, 1579.0, 1577.0, 1576.0, 1578.0, 1579.0, 1579.0, 1580.0, 1579.0, 1578.0, 1579.0, 1579.0, 1581.0, 1581.0, 1580.0, 1579.0, 1578.0, 1579.0, 1578.0, 1577.0, 1578.0, 1580.0, 1581.0, 1583.0, 1580.0, 1579.0, 1575.0, 1576.0, 1577.0, 1578.0, 1580.0, 1580.0, 1582.0, 1581.0, 1580.0, 1579.0, 1578.0, 1579.0, 1581.0, 1581.0, 1580.0, 1579.0, 1578.0, 1578.0, 1578.0, 1577.0, 1578.0, 1580.0, 1580.0, 1582.0, 1580.0, 1578.0, 1578.0, 1579.0, 1581.0, 1578.0, 1579.0, 1578.0, 1580.0, 1580.0, 1581.0, 1580.0, 1581.0, 1580.0, 1582.0, 1583.0, 1584.0, 1583.0, 1580.0, 1578.0, 1577.0, 1576.0, 1577.0, 1581.0, 1582.0, 1582.0, 1580.0, 1581.0]
    },
    "slices": {}
  }
}