{
  "AcquisitionMatrixPE": 64,
  "AcquisitionNumber": 1,
  "AcquisitionTime": "09:56:53.657500",
  "BandwidthPerPixelPhaseEncode": 33.967,
  "BaseResolution": 64,
  "CoilCombinationMethod": "Sum of Squares",
  "CoilString": "C:HEA;HEP",
  "ConversionSoftware": "dcm2niix",
  "ConversionSoftwareVersion": "v1.0.20220720",
  "DerivedVendorReportedEchoSpacing": 0.000460005,
  "DeviceSerialNumber": "35193",
  "DwellTime": 3.1e-06,
  "EchoTime": 0.03,
  "EffectiveEchoSpacing": 0.000460005,
  "FlipAngle": 90,
  "HeudiconvVersion": "1.1.6",
  "ImageOrientationPatientDICOM": [1, 0, 0, 0, 1, 0],
  "ImageOrientationText": "Tra",
  "ImageType": [
    "ORIGINAL",
    "PRIMARY",
    "M",
    "ND",
    "MOSAIC"
],
  "ImagingFrequency": 123.254,
  "InPlanePhaseEncodingDirectionDICOM": "COL",
  "InstitutionAddress": "Xinjiekouwai Street No 19,Beijing,Haidian District,CN,100875",
  "InstitutionName": "Beijing Normal Universtiy/577BC4/",
  "InstitutionalDepartmentName": "Department",
  "MRAcquisitionType": "2D",
  "MagneticFieldStrength": 3,
  "Manufacturer": "Siemens",
  "ManufacturersModelName": "TrioTim",
  "MatrixCoilMode": "SENSE",
  "Modality": "MR",
  "NonlinearGradientCorrection": false,
  "PartialFourier": 1,
  "PatientPosition": "HFS",
  "PercentPhaseFOV": 100,
  "PercentSampling": 100,
  "PhaseEncodingDirection": "j-",
  "PhaseEncodingSteps": 64,
  "PhaseResolution": 1,
  "PixelBandwidth": 2520,
  "ProcedureStepDescription": "BNU_cst_2015^Guo.TaoMei",
  "ProtocolName": "ge_func_3x3x4_164",
  "PulseSequenceDetails": "%SiemensSeq%\\ep2d_bold",
  "ReceiveCoilName": "HeadMatrix",
  "ReconMatrixPE": 64,
  "RepetitionTime": 2,
  "SAR": 0.123462,
  "ScanOptions": "FS",
  "ScanningSequence": "EP",
  "SequenceName": "*epfid2d1_64",
  "SequenceVariant": "SK",
  "SeriesDescription": "ge_func_3x3x4_164",
  "SeriesNumber": 5,
  "ShimSetting": [-4497, -19401, -9895, 1120, -132, -303, -171, 27],
  "SliceThickness": 4,
  "SliceTiming": [0, 1.035, 0.06, 1.095, 0.1225, 1.155, 0.1825, 1.2175, 0.2425, 1.2775, 0.305, 1.3375, 0.365, 1.4, 0.425, 1.46, 0.4875, 1.52, 0.5475, 1.5825, 0.6075, 1.6425, 0.67, 1.7025, 0.73, 1.765, 0.79, 1.825, 0.8525, 1.885, 0.9125, 1.9475, 0.9725],
  "SoftwareVersions": "syngo MR B17",
  "SpacingBetweenSlices": 4.6,
  "StationName": "MRC35193",
  "TaskName": "CognitiveControl",
  "TotalReadoutTime": 0.0289803,
  "TxRefAmp": 345.993,
  "dcmmeta_affine": [
    [-3.125, 0.0, 0.0, 100.0],
    [0.0, 3.125, 0.0, -85.40512084960938],
    [0.0, 0.0, 4.599999904632568, -67.5277099609375],
    [0.0, 0.0, 0.0, 1.0]
],
  "dcmmeta_reorient_transform": [
    [0.0, -1.0, 0.0, 63.0],
    [1.0, 0.0, 0.0, 0.0],
    [0.0, 0.0, 1.0, 0.0],
    [0.0, 0.0, 0.0, 1.0]
],
  "dcmmeta_shape": [64, 64, 33, 164],
  "dcmmeta_slice_dim": 2,
  "dcmmeta_version": 0.6,
  "global": {
    "const": {
      "AcquisitionMatrix": [64, 0, 0, 64],
      "AngioFlag": "N",
      "BitsAllocated": 16,
      "BitsStored": 12,
      "Columns": 384,
      "EchoNumbers": 1,
      "EchoTime": 30.0,
      "EchoTrainLength": 1,
      "FlipAngle": 90.0,
      "HighBit": 11,
      "ImageOrientationPatient": [1.0, 0.0, 0.0, 0.0, 1.0, 0.0],
      "ImagePositionPatient": [-600.0, -611.46987915039, -67.527709960938],
      "ImageType": [
        "ORIGINAL",
        "PRIMARY",
        "M",
        "ND",
        "MOSAIC"
],
      "ImagedNucleus": "1H",
      "ImagingFrequency": 123.253645,
      "InPlanePhaseEncodingDirection": "COL",
      "MRAcquisitionType": "2D",
      "MagneticFieldStrength": 3.0,
      "Manufacturer": "SIEMENS",
      "ManufacturerModelName": "TrioTim",
      "Modality": "MR",
      "NumberOfAverages": 1.0,
      "NumberOfPhaseEncodingSteps": 64,
      "PercentPhaseFieldOfView": 100.0,
      "PercentSampling": 100.0,
      "PerformedProcedureStepStartTime": "093529.234000",
      "PhotometricInterpretation": "MONOCHROME2",
      "PixelBandwidth": 2520.0,
      "PixelRepresentation": 0,
      "PixelSpacing": [3.125, 3.125],
      "ProtocolName": "ge_func_3x3x4_164",
      "RepetitionTime": 2000.0,
      "Rows": 384,
      "SAR": 0.12346211932237,
      "SamplesPerPixel": 1,
      "ScanOptions": "FS",
      "ScanningSequence": "EP",
      "SequenceName": "*epfid2d1_64",
      "SequenceVariant": "SK",
      "SeriesDescription": "ge_func_3x3x4_164",
      "SeriesNumber": 5,
      "SeriesTime": "095740.218000",
      "SliceLocation": -67.527709960938,
      "SliceThickness": 4.0,
      "SmallestImagePixelValue": 0,
      "SoftwareVersions": "syngo MR B17",
      "SpacingBetweenSlices": 4.5999999046326,
      "SpecificCharacterSet": "ISO_IR 100",
      "StudyID": "1",
      "StudyTime": "093528.484000",
      "TransmitCoilName": "Body",
      "VariableFlipAngleFlag": "N",
      "WindowCenterWidthExplanation": "Algo1",
      "dBdt": 0.0},
    "slices": {}
  },
  "time": {
    "samples": {
      "AcquisitionNumber": [1, 2, 3, 4, 5, 6, 7, 8, 9, 10, 11, 12, 13, 14, 15, 16, 17, 18, 19, 20, 21, 22, 23, 24, 25, 26, 27, 28, 29, 30, 31, 32, 33, 34, 35, 36, 37, 38, 39, 40, 41, 42, 43, 44, 45, 46, 47, 48, 49, 50, 51, 52, 53, 54, 55, 56, 57, 58, 59, 60, 61, 62, 63, 64, 65, 66, 67, 68, 69, 70, 71, 72, 73, 74, 75, 76, 77, 78, 79, 80, 81, 82, 83, 84, 85, 86, 87, 88, 89, 90, 91, 92, 93, 94, 95, 96, 97, 98, 99, 100, 101, 102, 103, 104, 105, 106, 107, 108, 109, 110, 111, 112, 113, 114, 115, 116, 117, 118, 119, 120, 121, 122, 123, 124, 125, 126, 127, 128, 129, 130, 131, 132, 133, 134, 135, 136, 137, 138, 139, 140, 141, 142, 143, 144, 145, 146, 147, 148, 149, 150, 151, 152, 153, 154, 155, 156, 157, 158, 159, 160, 161, 162, 163, 164],
      "AcquisitionTime": ["095653.657500", "095655.665000", "095657.675000", "095659.682500", "095701.690000", "095703.697500", "095705.705000", "095707.715000", "095709.722500", "095711.730000", "095713.737500", "095715.745000", "095717.755000", "095719.762500", "095721.770000", "095723.777500", "095725.787500", "095727.795000", "095729.802500", "095731.810000", "095733.817500", "095735.827500", "095737.835000", "095739.842500", "095741.850000", "095743.857500", "095745.867500", "095747.875000", "095749.882500", "095751.890000", "095753.897500", "095755.907500", "095757.915000", "095759.922500", "095801.930000", "095803.940000", "095805.947500", "095807.955000", "095809.962500", "095811.970000", "095813.980000", "095815.987500", "095817.995000", "095820.002500", "095822.010000", "095824.020000", "095826.027500", "095828.035000", "095830.042500", "095832.052500", "095834.060000", "095836.067500", "095838.075000", "095840.082500", "095842.092500", "095844.100000", "095846.107500", "095848.115000", "095850.122500", "095852.132500", "095854.140000", "095856.147500", "095858.155000", "095900.165000", "095902.172500", "095904.180000", "095906.187500", "095908.195000", "095910.205000", "095912.212500", "095914.220000", "095916.227500", "095918.235000", "095920.245000", "095922.252500", "095924.260000", "095926.267500", "095928.275000", "095930.285000", "095932.292500", "095934.300000", "095936.307500", "095938.317500", "095940.325000", "095942.332500", "095944.340000", "095946.347500", "095948.357500", "095950.365000", "095952.372500", "095954.380000", "095956.387500", "095958.397500", "100000.405000", "100002.412500", "100004.420000", "100006.430000", "100008.437500", "100010.445000", "100012.452500", "100014.460000", "100016.470000", "100018.477500", "100020.485000", "100022.492500", "100024.500000", "100026.510000", "100028.517500", "100030.525000", "100032.532500", "100034.542500", "100036.550000", "100038.557500", "100040.565000", "100042.572500", "100044.582500", "100046.590000", "100048.597500", "100050.605000", "100052.612500", "100054.622500", "100056.630000", "100058.637500", "100100.645000", "100102.652500", "100104.662500", "100106.670000", "100108.677500", "100110.685000", "100112.695000", "100114.702500", "100116.710000", "100118.717500", "100120.725000", "100122.735000", "100124.742500", "100126.750000", "100128.757500", "100130.765000", "100132.775000", "100134.782500", "100136.790000", "100138.797500", "100140.807500", "100142.815000", "100144.822500", "100146.830000", "100148.837500", "100150.847500", "100152.855000", "100154.862500", "100156.870000", "100158.877500", "100200.887500", "100202.895000", "100204.902500", "100206.910000", "100208.920000", "100210.927500", "100212.935000", "100214.942500", "100216.950000", "100218.960000", "100220.967500"],
      "ContentTime": ["095740.234000", "095740.234000", "095740.234000", "095740.234000", "095740.234000", "095740.234000", "095740.234000", "095740.250000", "095740.250000", "095740.265000", "095740.265000", "095740.265000", "095740.265000", "095740.265000", "095740.265000", "095740.265000", "095740.265000", "095740.265000", "095740.281000", "095740.281000", "095740.281000", "095740.281000", "095740.281000", "095820.218000", "095820.218000", "095820.234000", "095820.234000", "095820.234000", "095820.234000", "095820.250000", "095820.250000", "095820.250000", "095820.250000", "095820.250000", "095820.250000", "095820.250000", "095820.250000", "095820.265000", "095820.265000", "095820.265000", "095820.265000", "095820.265000", "095820.265000", "095900.218000", "095900.218000", "095900.234000", "095900.234000", "095900.234000", "095900.234000", "095900.234000", "095900.234000", "095900.234000", "095900.234000", "095900.250000", "095900.250000", "095900.250000", "095900.250000", "095900.250000", "095900.250000", "095900.250000", "095900.265000", "095900.265000", "095900.265000", "095940.218000", "095940.218000", "095940.234000", "095940.234000", "095940.234000", "095940.234000", "095940.234000", "095940.234000", "095940.250000", "095940.250000", "095940.250000", "095940.250000", "095940.250000", "095940.250000", "095940.250000", "095940.265000", "095940.265000", "095940.265000", "095940.265000", "095940.265000", "100020.218000", "100020.218000", "100020.234000", "100020.234000", "100020.234000", "100020.234000", "100020.234000", "100020.234000", "100020.250000", "100020.250000", "100020.250000", "100020.250000", "100020.250000", "100020.250000", "100020.250000", "100020.250000", "100020.265000", "100020.265000", "100020.265000", "100020.265000", "100100.218000", "100100.218000", "100100.234000", "100100.234000", "100100.234000", "100100.234000", "100100.234000", "100100.234000", "100100.234000", "100100.234000", "100100.250000", "100100.250000", "100100.250000", "100100.250000", "100100.250000", "100100.250000", "100100.250000", "100100.250000", "100100.265000", "100100.265000", "100140.218000", "100140.218000", "100140.234000", "100140.234000", "100140.234000", "100140.234000", "100140.234000", "100140.234000", "100140.234000", "100140.234000", "100140.250000", "100140.250000", "100140.250000", "100140.250000", "100140.250000", "100140.265000", "100140.265000", "100140.265000", "100140.265000", "100140.265000", "100220.218000", "100220.218000", "100220.234000", "100220.234000", "100220.234000", "100220.234000", "100220.234000", "100220.234000", "100220.234000", "100220.250000", "100220.250000", "100220.250000", "100220.250000", "100220.250000", "100220.250000", "100220.250000", "100220.265000", "100220.265000", "100220.265000", "100220.265000", "100222.156000"],
      "InstanceCreationTime": ["095740.234000", "095740.234000", "095740.234000", "095740.234000", "095740.234000", "095740.234000", "095740.234000", "095740.250000", "095740.250000", "095740.265000", "095740.265000", "095740.265000", "095740.265000", "095740.265000", "095740.265000", "095740.265000", "095740.265000", "095740.265000", "095740.281000", "095740.281000", "095740.281000", "095740.281000", "095740.281000", "095820.218000", "095820.218000", "095820.234000", "095820.234000", "095820.234000", "095820.234000", "095820.250000", "095820.250000", "095820.250000", "095820.250000", "095820.250000", "095820.250000", "095820.250000", "095820.250000", "095820.265000", "095820.265000", "095820.265000", "095820.265000", "095820.265000", "095820.265000", "095900.218000", "095900.218000", "095900.234000", "095900.234000", "095900.234000", "095900.234000", "095900.234000", "095900.234000", "095900.234000", "095900.234000", "095900.250000", "095900.250000", "095900.250000", "095900.250000", "095900.250000", "095900.250000", "095900.250000", "095900.265000", "095900.265000", "095900.265000", "095940.218000", "095940.218000", "095940.234000", "095940.234000", "095940.234000", "095940.234000", "095940.234000", "095940.234000", "095940.250000", "095940.250000", "095940.250000", "095940.250000", "095940.250000", "095940.250000", "095940.250000", "095940.265000", "095940.265000", "095940.265000", "095940.265000", "095940.265000", "100020.218000", "100020.218000", "100020.234000", "100020.234000", "100020.234000", "100020.234000", "100020.234000", "100020.234000", "100020.250000", "100020.250000", "100020.250000", "100020.250000", "100020.250000", "100020.250000", "100020.250000", "100020.250000", "100020.265000", "100020.265000", "100020.265000", "100020.265000", "100100.218000", "100100.218000", "100100.234000", "100100.234000", "100100.234000", "100100.234000", "100100.234000", "100100.234000", "100100.234000", "100100.234000", "100100.250000", "100100.250000", "100100.250000", "100100.250000", "100100.250000", "100100.250000", "100100.250000", "100100.250000", "100100.265000", "100100.265000", "100140.218000", "100140.218000", "100140.234000", "100140.234000", "100140.234000", "100140.234000", "100140.234000", "100140.234000", "100140.234000", "100140.234000", "100140.250000", "100140.250000", "100140.250000", "100140.250000", "100140.250000", "100140.265000", "100140.265000", "100140.265000", "100140.265000", "100140.265000", "100220.218000", "100220.218000", "100220.234000", "100220.234000", "100220.234000", "100220.234000", "100220.234000", "100220.234000", "100220.234000", "100220.250000", "100220.250000", "100220.250000", "100220.250000", "100220.250000", "100220.250000", "100220.250000", "100220.265000", "100220.265000", "100220.265000", "100220.265000", "100222.156000"],
      "InstanceNumber": [1, 2, 3, 4, 5, 6, 7, 8, 9, 10, 11, 12, 13, 14, 15, 16, 17, 18, 19, 20, 21, 22, 23, 24, 25, 26, 27, 28, 29, 30, 31, 32, 33, 34, 35, 36, 37, 38, 39, 40, 41, 42, 43, 44, 45, 46, 47, 48, 49, 50, 51, 52, 53, 54, 55, 56, 57, 58, 59, 60, 61, 62, 63, 64, 65, 66, 67, 68, 69, 70, 71, 72, 73, 74, 75, 76, 77, 78, 79, 80, 81, 82, 83, 84, 85, 86, 87, 88, 89, 90, 91, 92, 93, 94, 95, 96, 97, 98, 99, 100, 101, 102, 103, 104, 105, 106, 107, 108, 109, 110, 111, 112, 113, 114, 115, 116, 117, 118, 119, 120, 121, 122, 123, 124, 125, 126, 127, 128, 129, 130, 131, 132, 133, 134, 135, 136, 137, 138, 139, 140, 141, 142, 143, 144, 145, 146, 147, 148, 149, 150, 151, 152, 153, 154, 155, 156, 157, 158, 159, 160, 161, 162, 163, 164],
      "LargestImagePixelValue": [2063, 1985, 1971, 1965, 1961, 1946, 1952, 1966, 1961, 1947, 1948, 1972, 1941, 1958, 1953, 1948, 1952, 1964, 1966, 1954, 1972, 1960, 1951, 1948, 1963, 1951, 1949, 1947, 1942, 1941, 1935, 1966, 1956, 1949, 1949, 1950, 1960, 1958, 1965, 1943, 1965, 1967, 1965, 1967, 1959, 1941, 1969, 1956, 1968, 1969, 1963, 1962, 1956, 1963, 1969, 1979, 1976, 1958, 1955, 1960, 1967, 1975, 1964, 1976, 1978, 1987, 1965, 1954, 1942, 1958, 1967, 1959, 1974, 1971, 1971, 1971, 1969, 1972, 1967, 1964, 1948, 1971, 1973, 1962, 1963, 1958, 1965, 1959, 1956, 1960, 1960, 1959, 1960, 1958, 1973, 1954, 1973, 1985, 1963, 1976, 1962, 1967, 1963, 1949, 1963, 1978, 1960, 1972, 1977, 1972, 1965, 1978, 1979, 1974, 1961, 1960, 1979, 1964, 1938, 1969, 1973, 1967, 1957, 1964, 1955, 1978, 1969, 1972, 1968, 1964, 1960, 1973, 1974, 1979, 1980, 1977, 1976, 1964, 1961, 1975, 1966, 1976, 1991, 1966, 1981, 1974, 1963, 1973, 1970, 1971, 1979, 1970, 1971, 1969, 1975, 1980, 1967, 1949, 1969, 1965, 1957, 1954, 1974, 1987],
      "WindowCenter": [728.0, 726.0, 725.0, 725.0, 725.0, 725.0, 725.0, 725.0, 725.0, 726.0, 726.0, 726.0, 726.0, 725.0, 726.0, 726.0, 726.0, 726.0, 725.0, 725.0, 725.0, 725.0, 725.0, 725.0, 725.0, 725.0, 726.0, 726.0, 726.0, 727.0, 727.0, 726.0, 725.0, 725.0, 725.0, 725.0, 725.0, 726.0, 726.0, 726.0, 726.0, 727.0, 726.0, 726.0, 726.0, 726.0, 726.0, 726.0, 727.0, 727.0, 727.0, 727.0, 727.0, 727.0, 727.0, 727.0, 727.0, 727.0, 727.0, 727.0, 727.0, 728.0, 727.0, 727.0, 727.0, 727.0, 727.0, 728.0, 727.0, 727.0, 726.0, 726.0, 726.0, 726.0, 727.0, 726.0, 726.0, 726.0, 726.0, 726.0, 727.0, 727.0, 727.0, 727.0, 727.0, 728.0, 728.0, 728.0, 728.0, 728.0, 729.0, 729.0, 728.0, 727.0, 727.0, 727.0, 727.0, 726.0, 726.0, 727.0, 727.0, 726.0, 726.0, 726.0, 727.0, 727.0, 727.0, 727.0, 727.0, 727.0, 726.0, 726.0, 726.0, 726.0, 727.0, 727.0, 727.0, 727.0, 727.0, 729.0, 728.0, 728.0, 727.0, 727.0, 727.0, 727.0, 727.0, 727.0, 727.0, 727.0, 727.0, 727.0, 727.0, 727.0, 727.0, 727.0, 727.0, 727.0, 726.0, 726.0, 727.0, 727.0, 727.0, 727.0, 728.0, 728.0, 728.0, 728.0, 728.0, 728.0, 729.0, 728.0, 728.0, 728.0, 728.0, 727.0, 728.0, 728.0, 728.0, 727.0, 727.0, 727.0, 727.0, 727.0],
      "WindowWidth": [1578.0, 1572.0, 1572.0, 1571.0, 1570.0, 1569.0, 1570.0, 1569.0, 1571.0, 1572.0, 1572.0, 1574.0, 1572.0, 1571.0, 1572.0, 1572.0, 1572.0, 1572.0, 1571.0, 1571.0, 1570.0, 1570.0, 1571.0, 1571.0, 1571.0, 1571.0, 1572.0, 1572.0, 1572.0, 1575.0, 1575.0, 1573.0, 1571.0, 1571.0, 1571.0, 1571.0, 1571.0, 1571.0, 1572.0, 1573.0, 1574.0, 1574.0, 1574.0, 1573.0, 1573.0, 1572.0, 1573.0, 1573.0, 1575.0, 1576.0, 1577.0, 1575.0, 1575.0, 1575.0, 1574.0, 1576.0, 1576.0, 1576.0, 1576.0, 1575.0, 1577.0, 1579.0, 1575.0, 1574.0, 1575.0, 1575.0, 1576.0, 1577.0, 1575.0, 1574.0, 1573.0, 1573.0, 1572.0, 1573.0, 1575.0, 1573.0, 1571.0, 1572.0, 1572.0, 1573.0, 1574.0, 1575.0, 1575.0, 1575.0, 1575.0, 1577.0, 1577.0, 1577.0, 1577.0, 1579.0, 1581.0, 1581.0, 1578.0, 1576.0, 1575.0, 1575.0, 1575.0, 1573.0, 1573.0, 1575.0, 1575.0, 1573.0, 1572.0, 1573.0, 1575.0, 1575.0, 1576.0, 1575.0, 1575.0, 1574.0, 1574.0, 1574.0, 1572.0, 1573.0, 1574.0, 1576.0, 1576.0, 1575.0, 1576.0, 1580.0, 1579.0, 1577.0, 1575.0, 1574.0, 1575.0, 1574.0, 1574.0, 1576.0, 1576.0, 1576.0, 1575.0, 1576.0, 1575.0, 1574.0, 1575.0, 1574.0, 1574.0, 1574.0, 1573.0, 1574.0, 1574.0, 1576.0, 1576.0, 1575.0, 1577.0, 1577.0, 1578.0, 1578.0, 1578.0, 1578.0, 1579.0, 1578.0, 1577.0, 1577.0, 1578.0, 1576.0, 1577.0, 1577.0, 1577.0, 1576.0, 1576.0, 1576.0, 1577.0, 1574.0]
    },
    "slices": {}
  }
}