{
  "AcquisitionMatrixPE": 64,
  "AcquisitionNumber": 1,
  "AcquisitionTime": "09:50:31.272500",
  "BandwidthPerPixelPhaseEncode": 33.967,
  "BaseResolution": 64,
  "CoilCombinationMethod": "Sum of Squares",
  "CoilString": "C:HEA;HEP",
  "ConversionSoftware": "dcm2niix",
  "ConversionSoftwareVersion": "v1.0.20220720",
  "DerivedVendorReportedEchoSpacing": 0.000460005,
  "DeviceSerialNumber": "35193",
  "DwellTime": 3.1e-06,
  "EchoTime": 0.03,
  "EffectiveEchoSpacing": 0.000460005,
  "FlipAngle": 90,
  "HeudiconvVersion": "1.1.6",
  "ImageOrientationPatientDICOM": [1, 0, 0, 0, 1, 0],
  "ImageOrientationText": "Tra",
  "ImageType": [
    "ORIGINAL",
    "PRIMARY",
    "M",
    "ND",
    "MOSAIC"
],
  "ImagingFrequency": 123.254,
  "InPlanePhaseEncodingDirectionDICOM": "COL",
  "InstitutionAddress": "Xinjiekouwai Street No 19,Beijing,Haidian District,CN,100875",
  "InstitutionName": "Beijing Normal Universtiy/577BC4/",
  "InstitutionalDepartmentName": "Department",
  "MRAcquisitionType": "2D",
  "MagneticFieldStrength": 3,
  "Manufacturer": "Siemens",
  "ManufacturersModelName": "TrioTim",
  "MatrixCoilMode": "SENSE",
  "Modality": "MR",
  "NonlinearGradientCorrection": false,
  "PartialFourier": 1,
  "PatientPosition": "HFS",
  "PercentPhaseFOV": 100,
  "PercentSampling": 100,
  "PhaseEncodingDirection": "j-",
  "PhaseEncodingSteps": 64,
  "PhaseResolution": 1,
  "PixelBandwidth": 2520,
  "ProcedureStepDescription": "BNU_cst_2015^Guo.TaoMei",
  "ProtocolName": "ge_func_3x3x4_164",
  "PulseSequenceDetails": "%SiemensSeq%\\ep2d_bold",
  "ReceiveCoilName": "HeadMatrix",
  "ReconMatrixPE": 64,
  "RepetitionTime": 2,
  "SAR": 0.123462,
  "ScanOptions": "FS",
  "ScanningSequence": "EP",
  "SequenceName": "*epfid2d1_64",
  "SequenceVariant": "SK",
  "SeriesDescription": "ge_func_3x3x4_164",
  "SeriesNumber": 4,
  "ShimSetting": [-4497, -19401, -9895, 1120, -132, -303, -171, 27],
  "SliceThickness": 4,
  "SliceTiming": [0, 1.035, 0.06, 1.095, 0.1225, 1.155, 0.1825, 1.2175, 0.2425, 1.2775, 0.305, 1.3375, 0.365, 1.4, 0.425, 1.46, 0.4875, 1.52, 0.5475, 1.5825, 0.6075, 1.6425, 0.67, 1.7025, 0.73, 1.765, 0.79, 1.825, 0.8525, 1.885, 0.9125, 1.9475, 0.9725],
  "SoftwareVersions": "syngo MR B17",
  "SpacingBetweenSlices": 4.6,
  "StationName": "MRC35193",
  "TaskName": "CognitiveControl",
  "TotalReadoutTime": 0.0289803,
  "TxRefAmp": 345.993,
  "dcmmeta_affine": [
    [-3.125, 0.0, 0.0, 100.0],
    [0.0, 3.125, 0.0, -85.40512084960938],
    [0.0, 0.0, 4.599999904632568, -67.5277099609375],
    [0.0, 0.0, 0.0, 1.0]
],
  "dcmmeta_reorient_transform": [
    [0.0, -1.0, 0.0, 63.0],
    [1.0, 0.0, 0.0, 0.0],
    [0.0, 0.0, 1.0, 0.0],
    [0.0, 0.0, 0.0, 1.0]
],
  "dcmmeta_shape": [64, 64, 33, 164],
  "dcmmeta_slice_dim": 2,
  "dcmmeta_version": 0.6,
  "global": {
    "const": {
      "AcquisitionMatrix": [64, 0, 0, 64],
      "AngioFlag": "N",
      "BitsAllocated": 16,
      "BitsStored": 12,
      "Columns": 384,
      "EchoNumbers": 1,
      "EchoTime": 30.0,
      "EchoTrainLength": 1,
      "FlipAngle": 90.0,
      "HighBit": 11,
      "ImageOrientationPatient": [1.0, 0.0, 0.0, 0.0, 1.0, 0.0],
      "ImagePositionPatient": [-600.0, -611.46987915039, -67.527709960938],
      "ImageType": [
        "ORIGINAL",
        "PRIMARY",
        "M",
        "ND",
        "MOSAIC"
],
      "ImagedNucleus": "1H",
      "ImagingFrequency": 123.253638,
      "InPlanePhaseEncodingDirection": "COL",
      "MRAcquisitionType": "2D",
      "MagneticFieldStrength": 3.0,
      "Manufacturer": "SIEMENS",
      "ManufacturerModelName": "TrioTim",
      "Modality": "MR",
      "NumberOfAverages": 1.0,
      "NumberOfPhaseEncodingSteps": 64,
      "PercentPhaseFieldOfView": 100.0,
      "PercentSampling": 100.0,
      "PerformedProcedureStepStartTime": "093529.234000",
      "PhotometricInterpretation": "MONOCHROME2",
      "PixelBandwidth": 2520.0,
      "PixelRepresentation": 0,
      "PixelSpacing": [3.125, 3.125],
      "ProtocolName": "ge_func_3x3x4_164",
      "RepetitionTime": 2000.0,
      "Rows": 384,
      "SAR": 0.12346211932237,
      "SamplesPerPixel": 1,
      "ScanOptions": "FS",
      "ScanningSequence": "EP",
      "SequenceName": "*epfid2d1_64",
      "SequenceVariant": "SK",
      "SeriesDescription": "ge_func_3x3x4_164",
      "SeriesNumber": 4,
      "SeriesTime": "095121.750000",
      "SliceLocation": -67.527709960938,
      "SliceThickness": 4.0,
      "SmallestImagePixelValue": 0,
      "SoftwareVersions": "syngo MR B17",
      "SpacingBetweenSlices": 4.5999999046326,
      "SpecificCharacterSet": "ISO_IR 100",
      "StudyID": "1",
      "StudyTime": "093528.484000",
      "TransmitCoilName": "Body",
      "VariableFlipAngleFlag": "N",
      "WindowCenterWidthExplanation": "Algo1",
      "dBdt": 0.0},
    "slices": {}
  },
  "time": {
    "samples": {
      "AcquisitionNumber": [1, 2, 3, 4, 5, 6, 7, 8, 9, 10, 11, 12, 13, 14, 15, 16, 17, 18, 19, 20, 21, 22, 23, 24, 25, 26, 27, 28, 29, 30, 31, 32, 33, 34, 35, 36, 37, 38, 39, 40, 41, 42, 43, 44, 45, 46, 47, 48, 49, 50, 51, 52, 53, 54, 55, 56, 57, 58, 59, 60, 61, 62, 63, 64, 65, 66, 67, 68, 69, 70, 71, 72, 73, 74, 75, 76, 77, 78, 79, 80, 81, 82, 83, 84, 85, 86, 87, 88, 89, 90, 91, 92, 93, 94, 95, 96, 97, 98, 99, 100, 101, 102, 103, 104, 105, 106, 107, 108, 109, 110, 111, 112, 113, 114, 115, 116, 117, 118, 119, 120, 121, 122, 123, 124, 125, 126, 127, 128, 129, 130, 131, 132, 133, 134, 135, 136, 137, 138, 139, 140, 141, 142, 143, 144, 145, 146, 147, 148, 149, 150, 151, 152, 153, 154, 155, 156, 157, 158, 159, 160, 161, 162, 163, 164],
      "AcquisitionTime": ["095031.272500", "095033.280000", "095035.287500", "095037.297500", "095039.305000", "095041.312500", "095043.320000", "095045.327500", "095047.337500", "095049.345000", "095051.352500", "095053.360000", "095055.367500", "095057.377500", "095059.385000", "095101.392500", "095103.400000", "095105.410000", "095107.417500", "095109.425000", "095111.432500", "095113.440000", "095115.450000", "095117.457500", "095119.465000", "095121.472500", "095123.480000", "095125.490000", "095127.497500", "095129.505000", "095131.512500", "095133.522500", "095135.530000", "095137.537500", "095139.545000", "095141.552500", "095143.562500", "095145.570000", "095147.577500", "095149.585000", "095151.592500", "095153.602500", "095155.610000", "095157.617500", "095159.625000", "095201.635000", "095203.642500", "095205.650000", "095207.657500", "095209.665000", "095211.675000", "095213.682500", "095215.690000", "095217.697500", "095219.705000", "095221.715000", "095223.722500", "095225.730000", "095227.737500", "095229.745000", "095231.755000", "095233.762500", "095235.770000", "095237.777500", "095239.787500", "095241.795000", "095243.802500", "095245.810000", "095247.817500", "095249.827500", "095251.835000", "095253.842500", "095255.850000", "095257.857500", "095259.867500", "095301.875000", "095303.882500", "095305.890000", "095307.900000", "095309.907500", "095311.915000", "095313.922500", "095315.930000", "095317.940000", "095319.947500", "095321.955000", "095323.962500", "095325.970000", "095327.980000", "095329.987500", "095331.995000", "095334.002500", "095336.012500", "095338.020000", "095340.027500", "095342.035000", "095344.042500", "095346.052500", "095348.060000", "095350.067500", "095352.075000", "095354.082500", "095356.092500", "095358.100000", "095400.107500", "095402.115000", "095404.122500", "095406.132500", "095408.140000", "095410.147500", "095412.155000", "095414.165000", "095416.172500", "095418.180000", "095420.187500", "095422.195000", "095424.205000", "095426.212500", "095428.220000", "095430.227500", "095432.235000", "095434.245000", "095436.252500", "095438.260000", "095440.267500", "095442.277500", "095444.285000", "095446.292500", "095448.300000", "095450.307500", "095452.317500", "095454.325000", "095456.332500", "095458.340000", "095500.347500", "095502.357500", "095504.365000", "095506.372500", "095508.380000", "095510.390000", "095512.397500", "095514.405000", "095516.412500", "095518.420000", "095520.430000", "095522.437500", "095524.445000", "095526.452500", "095528.460000", "095530.470000", "095532.477500", "095534.485000", "095536.492500", "095538.500000", "095540.510000", "095542.517500", "095544.525000", "095546.532500", "095548.542500", "095550.550000", "095552.557500", "095554.565000", "095556.572500", "095558.582500"],
      "ContentTime": ["095121.765000", "095121.765000", "095121.765000", "095121.765000", "095121.765000", "095121.765000", "095121.781000", "095121.781000", "095121.781000", "095121.781000", "095121.796000", "095121.796000", "095121.796000", "095121.796000", "095121.796000", "095121.796000", "095121.796000", "095121.812000", "095121.812000", "095121.812000", "095121.812000", "095121.812000", "095121.812000", "095121.828000", "095201.750000", "095201.750000", "095201.765000", "095201.765000", "095201.765000", "095201.765000", "095201.765000", "095201.781000", "095201.781000", "095201.781000", "095201.781000", "095201.781000", "095201.781000", "095201.781000", "095201.781000", "095201.796000", "095201.796000", "095201.796000", "095201.796000", "095201.796000", "095241.750000", "095241.750000", "095241.765000", "095241.765000", "095241.765000", "095241.765000", "095241.765000", "095241.765000", "095241.765000", "095241.765000", "095241.781000", "095241.781000", "095241.781000", "095241.781000", "095241.781000", "095241.781000", "095241.781000", "095241.781000", "095241.796000", "095241.796000", "095321.750000", "095321.750000", "095321.750000", "095321.765000", "095321.781000", "095321.781000", "095321.781000", "095321.781000", "095321.796000", "095321.796000", "095321.796000", "095321.796000", "095321.796000", "095321.796000", "095321.796000", "095321.796000", "095321.812000", "095321.812000", "095321.812000", "095321.812000", "095401.750000", "095401.750000", "095401.765000", "095401.765000", "095401.765000", "095401.765000", "095401.765000", "095401.781000", "095401.781000", "095401.781000", "095401.781000", "095401.781000", "095401.781000", "095401.781000", "095401.781000", "095401.796000", "095401.796000", "095401.796000", "095401.796000", "095401.796000", "095441.750000", "095441.750000", "095441.765000", "095441.765000", "095441.765000", "095441.765000", "095441.765000", "095441.781000", "095441.781000", "095441.781000", "095441.781000", "095441.781000", "095441.781000", "095441.781000", "095441.796000", "095441.796000", "095441.796000", "095441.796000", "095441.796000", "095441.796000", "095521.750000", "095521.750000", "095521.765000", "095521.765000", "095521.765000", "095521.765000", "095521.765000", "095521.765000", "095521.765000", "095521.781000", "095521.781000", "095521.781000", "095521.781000", "095521.781000", "095521.781000", "095521.781000", "095521.796000", "095521.796000", "095521.796000", "095521.796000", "095600.031000", "095600.031000", "095600.031000", "095600.031000", "095600.031000", "095600.031000", "095600.046000", "095600.046000", "095600.046000", "095600.046000", "095600.046000", "095600.046000", "095600.046000", "095600.062000", "095600.062000", "095600.062000", "095600.062000", "095600.062000", "095600.062000", "095600.062000"],
      "InstanceCreationTime": ["095121.765000", "095121.765000", "095121.765000", "095121.765000", "095121.765000", "095121.765000", "095121.781000", "095121.781000", "095121.781000", "095121.781000", "095121.796000", "095121.796000", "095121.796000", "095121.796000", "095121.796000", "095121.796000", "095121.796000", "095121.812000", "095121.812000", "095121.812000", "095121.812000", "095121.812000", "095121.812000", "095121.828000", "095201.750000", "095201.750000", "095201.765000", "095201.765000", "095201.765000", "095201.765000", "095201.765000", "095201.781000", "095201.781000", "095201.781000", "095201.781000", "095201.781000", "095201.781000", "095201.781000", "095201.781000", "095201.796000", "095201.796000", "095201.796000", "095201.796000", "095201.796000", "095241.750000", "095241.750000", "095241.765000", "095241.765000", "095241.765000", "095241.765000", "095241.765000", "095241.765000", "095241.765000", "095241.765000", "095241.781000", "095241.781000", "095241.781000", "095241.781000", "095241.781000", "095241.781000", "095241.781000", "095241.781000", "095241.796000", "095241.796000", "095321.750000", "095321.750000", "095321.750000", "095321.765000", "095321.781000", "095321.781000", "095321.781000", "095321.781000", "095321.796000", "095321.796000", "095321.796000", "095321.796000", "095321.796000", "095321.796000", "095321.796000", "095321.796000", "095321.812000", "095321.812000", "095321.812000", "095321.812000", "095401.750000", "095401.750000", "095401.765000", "095401.765000", "095401.765000", "095401.765000", "095401.765000", "095401.781000", "095401.781000", "095401.781000", "095401.781000", "095401.781000", "095401.781000", "095401.781000", "095401.781000", "095401.796000", "095401.796000", "095401.796000", "095401.796000", "095401.796000", "095441.750000", "095441.750000", "095441.765000", "095441.765000", "095441.765000", "095441.765000", "095441.765000", "095441.781000", "095441.781000", "095441.781000", "095441.781000", "095441.781000", "095441.781000", "095441.781000", "095441.796000", "095441.796000", "095441.796000", "095441.796000", "095441.796000", "095441.796000", "095521.750000", "095521.750000", "095521.765000", "095521.765000", "095521.765000", "095521.765000", "095521.765000", "095521.765000", "095521.765000", "095521.781000", "095521.781000", "095521.781000", "095521.781000", "095521.781000", "095521.781000", "095521.781000", "095521.796000", "095521.796000", "095521.796000", "095521.796000", "095600.031000", "095600.031000", "095600.031000", "095600.031000", "095600.031000", "095600.031000", "095600.046000", "095600.046000", "095600.046000", "095600.046000", "095600.046000", "095600.046000", "095600.046000", "095600.062000", "095600.062000", "095600.062000", "095600.062000", "095600.062000", "095600.062000", "095600.062000"],
      "InstanceNumber": [1, 2, 3, 4, 5, 6, 7, 8, 9, 10, 11, 12, 13, 14, 15, 16, 17, 18, 19, 20, 21, 22, 23, 24, 25, 26, 27, 28, 29, 30, 31, 32, 33, 34, 35, 36, 37, 38, 39, 40, 41, 42, 43, 44, 45, 46, 47, 48, 49, 50, 51, 52, 53, 54, 55, 56, 57, 58, 59, 60, 61, 62, 63, 64, 65, 66, 67, 68, 69, 70, 71, 72, 73, 74, 75, 76, 77, 78, 79, 80, 81, 82, 83, 84, 85, 86, 87, 88, 89, 90, 91, 92, 93, 94, 95, 96, 97, 98, 99, 100, 101, 102, 103, 104, 105, 106, 107, 108, 109, 110, 111, 112, 113, 114, 115, 116, 117, 118, 119, 120, 121, 122, 123, 124, 125, 126, 127, 128, 129, 130, 131, 132, 133, 134, 135, 136, 137, 138, 139, 140, 141, 142, 143, 144, 145, 146, 147, 148, 149, 150, 151, 152, 153, 154, 155, 156, 157, 158, 159, 160, 161, 162, 163, 164],
      "LargestImagePixelValue": [1857, 1801, 1780, 1821, 1779, 1752, 1774, 1758, 1809, 1764, 1765, 1761, 1759, 1767, 1858, 1765, 1767, 1810, 1779, 1770, 1764, 1798, 1772, 1766, 1772, 1780, 1770, 1762, 1781, 1764, 1769, 1778, 1750, 1794, 1775, 1774, 1837, 1837, 1804, 1819, 1828, 1818, 1822, 1809, 1826, 1794, 1810, 1822, 1861, 1889, 1854, 1781, 1798, 1814, 1814, 1810, 1814, 1851, 1801, 1822, 1848, 1892, 1773, 1813, 1804, 1802, 1797, 1779, 1828, 1810, 1803, 1817, 1822, 1803, 1816, 1829, 1799, 1811, 1815, 1804, 1794, 1804, 1821, 1797, 1807, 1811, 1824, 1813, 1814, 1812, 1815, 1969, 1822, 1821, 1800, 1816, 1815, 1822, 1788, 1834, 1852, 1845, 1830, 1844, 1843, 1841, 1837, 1844, 1857, 1857, 1837, 1852, 1865, 1849, 1831, 1834, 1863, 2017, 1860, 1843, 1849, 1856, 1855, 1858, 1843, 1851, 1854, 1874, 1842, 1847, 1866, 1852, 1847, 1845, 1893, 1863, 1809, 1846, 1871, 1860, 1866, 1862, 1868, 1867, 1908, 1840, 1871, 1899, 1887, 1873, 1883, 1886, 1884, 1887, 1880, 1890, 1891, 1906, 1890, 1892, 1889, 1909, 1894, 1897],
      "WindowCenter": [722.0, 721.0, 720.0, 720.0, 719.0, 718.0, 718.0, 718.0, 718.0, 718.0, 719.0, 719.0, 719.0, 719.0, 719.0, 719.0, 719.0, 719.0, 718.0, 718.0, 718.0, 719.0, 718.0, 718.0, 718.0, 718.0, 718.0, 718.0, 718.0, 718.0, 718.0, 718.0, 718.0, 719.0, 718.0, 719.0, 722.0, 725.0, 725.0, 725.0, 725.0, 724.0, 725.0, 725.0, 725.0, 724.0, 725.0, 725.0, 725.0, 725.0, 726.0, 724.0, 724.0, 725.0, 724.0, 725.0, 725.0, 726.0, 725.0, 723.0, 722.0, 722.0, 719.0, 719.0, 718.0, 717.0, 719.0, 717.0, 718.0, 719.0, 720.0, 722.0, 722.0, 723.0, 723.0, 723.0, 722.0, 721.0, 720.0, 720.0, 719.0, 721.0, 721.0, 719.0, 718.0, 719.0, 719.0, 720.0, 721.0, 722.0, 722.0, 723.0, 724.0, 722.0, 719.0, 719.0, 720.0, 722.0, 724.0, 726.0, 725.0, 726.0, 726.0, 726.0, 725.0, 726.0, 726.0, 726.0, 725.0, 725.0, 725.0, 725.0, 726.0, 727.0, 727.0, 727.0, 727.0, 728.0, 726.0, 725.0, 726.0, 726.0, 726.0, 726.0, 726.0, 725.0, 725.0, 726.0, 726.0, 726.0, 726.0, 726.0, 726.0, 726.0, 726.0, 725.0, 722.0, 723.0, 723.0, 723.0, 723.0, 723.0, 723.0, 725.0, 723.0, 721.0, 725.0, 726.0, 726.0, 726.0, 726.0, 726.0, 727.0, 727.0, 727.0, 727.0, 726.0, 726.0, 726.0, 726.0, 727.0, 727.0, 727.0, 727.0],
      "WindowWidth": [1563.0, 1558.0, 1556.0, 1556.0, 1554.0, 1551.0, 1550.0, 1550.0, 1551.0, 1552.0, 1552.0, 1552.0, 1552.0, 1552.0, 1554.0, 1552.0, 1553.0, 1553.0, 1551.0, 1550.0, 1550.0, 1552.0, 1552.0, 1550.0, 1549.0, 1549.0, 1549.0, 1549.0, 1550.0, 1549.0, 1549.0, 1549.0, 1549.0, 1553.0, 1551.0, 1552.0, 1561.0, 1569.0, 1568.0, 1570.0, 1570.0, 1568.0, 1568.0, 1568.0, 1569.0, 1568.0, 1569.0, 1569.0, 1570.0, 1571.0, 1572.0, 1567.0, 1566.0, 1569.0, 1568.0, 1570.0, 1570.0, 1572.0, 1571.0, 1564.0, 1560.0, 1561.0, 1553.0, 1553.0, 1551.0, 1547.0, 1552.0, 1548.0, 1550.0, 1554.0, 1556.0, 1561.0, 1561.0, 1563.0, 1564.0, 1565.0, 1560.0, 1557.0, 1555.0, 1555.0, 1554.0, 1557.0, 1559.0, 1552.0, 1551.0, 1552.0, 1554.0, 1556.0, 1560.0, 1563.0, 1562.0, 1564.0, 1568.0, 1561.0, 1552.0, 1553.0, 1557.0, 1561.0, 1567.0, 1571.0, 1571.0, 1572.0, 1573.0, 1572.0, 1570.0, 1571.0, 1571.0, 1572.0, 1570.0, 1570.0, 1570.0, 1571.0, 1573.0, 1576.0, 1575.0, 1575.0, 1574.0, 1577.0, 1573.0, 1571.0, 1571.0, 1572.0, 1573.0, 1572.0, 1572.0, 1571.0, 1570.0, 1571.0, 1571.0, 1571.0, 1572.0, 1573.0, 1571.0, 1571.0, 1573.0, 1569.0, 1561.0, 1563.0, 1565.0, 1563.0, 1564.0, 1563.0, 1564.0, 1570.0, 1565.0, 1559.0, 1570.0, 1571.0, 1571.0, 1571.0, 1573.0, 1573.0, 1574.0, 1574.0, 1574.0, 1574.0, 1573.0, 1572.0, 1572.0, 1573.0, 1574.0, 1575.0, 1575.0, 1575.0]
    },
    "slices": {}
  }
}