{
  "AcquisitionMatrixPE": 64,
  "AcquisitionNumber": 1,
  "AcquisitionTime": "16:31:37.935000",
  "BandwidthPerPixelPhaseEncode": 33.967,
  "BaseResolution": 64,
  "CoilCombinationMethod": "Sum of Squares",
  "CoilString": "C:HEA;HEP",
  "ConversionSoftware": "dcm2niix",
  "ConversionSoftwareVersion": "v1.0.20220720",
  "DerivedVendorReportedEchoSpacing": 0.000460005,
  "DeviceSerialNumber": "35193",
  "DwellTime": 3.1e-06,
  "EchoTime": 0.03,
  "EffectiveEchoSpacing": 0.000460005,
  "FlipAngle": 90,
  "HeudiconvVersion": "1.1.6",
  "ImageOrientationPatientDICOM": [1, 0, 0, 0, 1, 0],
  "ImageOrientationText": "Tra",
  "ImageType": [
    "ORIGINAL",
    "PRIMARY",
    "M",
    "ND",
    "MOSAIC"
],
  "ImagingFrequency": 123.254,
  "InPlanePhaseEncodingDirectionDICOM": "COL",
  "InstitutionAddress": "Xinjiekouwai Street No 19,Beijing,Haidian District,CN,100875",
  "InstitutionName": "BNU MRI Center",
  "InstitutionalDepartmentName": "Department",
  "MRAcquisitionType": "2D",
  "MagneticFieldStrength": 3,
  "Manufacturer": "Siemens",
  "ManufacturersModelName": "TrioTim",
  "MatrixCoilMode": "SENSE",
  "Modality": "MR",
  "NonlinearGradientCorrection": false,
  "PartialFourier": 1,
  "PatientPosition": "HFS",
  "PercentPhaseFOV": 100,
  "PercentSampling": 100,
  "PhaseEncodingDirection": "j-",
  "PhaseEncodingSteps": 64,
  "PhaseResolution": 1,
  "PixelBandwidth": 2520,
  "ProcedureStepDescription": "BNU_cst_2015^Guo.TaoMei",
  "ProtocolName": "ge_func_3x3x4_164",
  "PulseSequenceDetails": "%SiemensSeq%\\ep2d_bold",
  "ReceiveCoilName": "HeadMatrix",
  "ReconMatrixPE": 64,
  "RepetitionTime": 2,
  "SAR": 0.145143,
  "ScanOptions": "FS",
  "ScanningSequence": "EP",
  "SequenceName": "*epfid2d1_64",
  "SequenceVariant": "SK",
  "SeriesDescription": "ge_func_3x3x4_164",
  "SeriesNumber": 3,
  "ShimSetting": [-4488, -19446, -9802, 1211, -145, -312, -114, -202],
  "SliceThickness": 4,
  "SliceTiming": [0, 1.035, 0.0625, 1.095, 0.1225, 1.1575, 0.1825, 1.2175, 0.245, 1.2775, 0.305, 1.34, 0.365, 1.4, 0.4275, 1.46, 0.4875, 1.5225, 0.5475, 1.5825, 0.61, 1.6425, 0.67, 1.705, 0.73, 1.765, 0.7925, 1.825, 0.8525, 1.8875, 0.9125, 1.9475, 0.975],
  "SoftwareVersions": "syngo MR B17",
  "SpacingBetweenSlices": 4.6,
  "StationName": "MRC35193",
  "TaskName": "CognitiveControl",
  "TotalReadoutTime": 0.0289803,
  "TxRefAmp": 327.36,
  "dcmmeta_affine": [
    [-3.125, 0.0, 0.0, 106.74698638916016],
    [0.0, 3.125, 0.0, -67.1882553100586],
    [0.0, 0.0, 4.599999904632568, -43.91325378417969],
    [0.0, 0.0, 0.0, 1.0]
],
  "dcmmeta_reorient_transform": [
    [0.0, -1.0, 0.0, 63.0],
    [1.0, 0.0, 0.0, 0.0],
    [0.0, 0.0, 1.0, 0.0],
    [0.0, 0.0, 0.0, 1.0]
],
  "dcmmeta_shape": [64, 64, 33, 164],
  "dcmmeta_slice_dim": 2,
  "dcmmeta_version": 0.6,
  "global": {
    "const": {
      "AcquisitionMatrix": [64, 0, 0, 64],
      "AngioFlag": "N",
      "BitsAllocated": 16,
      "BitsStored": 12,
      "Columns": 384,
      "EchoNumbers": 1,
      "EchoTime": 30.0,
      "EchoTrainLength": 1,
      "FlipAngle": 90.0,
      "HighBit": 11,
      "ImageOrientationPatient": [1.0, 0.0, 0.0, 0.0, 1.0, 0.0],
      "ImagePositionPatient": [-606.74698781967, -629.68674659729, -43.91325378418],
      "ImageType": [
        "ORIGINAL",
        "PRIMARY",
        "M",
        "ND",
        "MOSAIC"
],
      "ImagedNucleus": "1H",
      "ImagingFrequency": 123.253676,
      "InPlanePhaseEncodingDirection": "COL",
      "MRAcquisitionType": "2D",
      "MagneticFieldStrength": 3.0,
      "Manufacturer": "SIEMENS",
      "ManufacturerModelName": "TrioTim",
      "Modality": "MR",
      "NumberOfAverages": 1.0,
      "NumberOfPhaseEncodingSteps": 64,
      "PercentPhaseFieldOfView": 100.0,
      "PercentSampling": 100.0,
      "PerformedProcedureStepStartTime": "162004.750000",
      "PhotometricInterpretation": "MONOCHROME2",
      "PixelBandwidth": 2520.0,
      "PixelRepresentation": 0,
      "PixelSpacing": [3.125, 3.125],
      "ProtocolName": "ge_func_3x3x4_164",
      "RepetitionTime": 2000.0,
      "Rows": 384,
      "SAR": 0.14514315230077,
      "SamplesPerPixel": 1,
      "ScanOptions": "FS",
      "ScanningSequence": "EP",
      "SequenceName": "*epfid2d1_64",
      "SequenceVariant": "SK",
      "SeriesDescription": "ge_func_3x3x4_164",
      "SeriesNumber": 3,
      "SeriesTime": "163219.453000",
      "SliceLocation": -43.91325378418,
      "SliceThickness": 4.0,
      "SmallestImagePixelValue": 0,
      "SoftwareVersions": "syngo MR B17",
      "SpacingBetweenSlices": 4.6000001430511,
      "SpecificCharacterSet": "ISO_IR 100",
      "StudyID": "1",
      "StudyTime": "162004.671000",
      "TransmitCoilName": "Body",
      "VariableFlipAngleFlag": "N",
      "WindowCenterWidthExplanation": "Algo1",
      "dBdt": 0.0},
    "slices": {}
  },
  "time": {
    "samples": {
      "AcquisitionNumber": [1, 2, 3, 4, 5, 6, 7, 8, 9, 10, 11, 12, 13, 14, 15, 16, 17, 18, 19, 20, 21, 22, 23, 24, 25, 26, 27, 28, 29, 30, 31, 32, 33, 34, 35, 36, 37, 38, 39, 40, 41, 42, 43, 44, 45, 46, 47, 48, 49, 50, 51, 52, 53, 54, 55, 56, 57, 58, 59, 60, 61, 62, 63, 64, 65, 66, 67, 68, 69, 70, 71, 72, 73, 74, 75, 76, 77, 78, 79, 80, 81, 82, 83, 84, 85, 86, 87, 88, 89, 90, 91, 92, 93, 94, 95, 96, 97, 98, 99, 100, 101, 102, 103, 104, 105, 106, 107, 108, 109, 110, 111, 112, 113, 114, 115, 116, 117, 118, 119, 120, 121, 122, 123, 124, 125, 126, 127, 128, 129, 130, 131, 132, 133, 134, 135, 136, 137, 138, 139, 140, 141, 142, 143, 144, 145, 146, 147, 148, 149, 150, 151, 152, 153, 154, 155, 156, 157, 158, 159, 160, 161, 162, 163, 164],
      "AcquisitionTime": ["163137.935000", "163139.945000", "163141.952500", "163143.960000", "163145.967500", "163147.977500", "163149.985000", "163151.992500", "163154.000000", "163156.007500", "163158.017500", "163200.025000", "163202.032500", "163204.040000", "163206.047500", "163208.057500", "163210.065000", "163212.072500", "163214.080000", "163216.087500", "163218.097500", "163220.105000", "163222.112500", "163224.120000", "163226.130000", "163228.137500", "163230.145000", "163232.152500", "163234.160000", "163236.170000", "163238.177500", "163240.185000", "163242.192500", "163244.200000", "163246.210000", "163248.217500", "163250.225000", "163252.232500", "163254.242500", "163256.250000", "163258.257500", "163300.265000", "163302.272500", "163304.282500", "163306.290000", "163308.297500", "163310.305000", "163312.312500", "163314.322500", "163316.330000", "163318.337500", "163320.345000", "163322.355000", "163324.362500", "163326.370000", "163328.377500", "163330.385000", "163332.395000", "163334.402500", "163336.410000", "163338.417500", "163340.425000", "163342.435000", "163344.442500", "163346.450000", "163348.457500", "163350.467500", "163352.475000", "163354.482500", "163356.490000", "163358.497500", "163400.507500", "163402.515000", "163404.522500", "163406.530000", "163408.537500", "163410.547500", "163412.555000", "163414.562500", "163416.570000", "163418.577500", "163420.587500", "163422.595000", "163424.602500", "163426.610000", "163428.620000", "163430.627500", "163432.635000", "163434.642500", "163436.650000", "163438.660000", "163440.667500", "163442.675000", "163444.682500", "163446.690000", "163448.700000", "163450.707500", "163452.715000", "163454.722500", "163456.732500", "163458.740000", "163500.747500", "163502.755000", "163504.762500", "163506.772500", "163508.780000", "163510.787500", "163512.795000", "163514.802500", "163516.812500", "163518.820000", "163520.827500", "163522.835000", "163524.845000", "163526.852500", "163528.860000", "163530.867500", "163532.875000", "163534.885000", "163536.892500", "163538.900000", "163540.907500", "163542.915000", "163544.925000", "163546.932500", "163548.940000", "163550.947500", "163552.955000", "163554.965000", "163556.972500", "163558.980000", "163600.987500", "163602.997500", "163605.005000", "163607.012500", "163609.020000", "163611.027500", "163613.037500", "163615.045000", "163617.052500", "163619.060000", "163621.067500", "163623.077500", "163625.085000", "163627.092500", "163629.100000", "163631.110000", "163633.117500", "163635.125000", "163637.132500", "163639.140000", "163641.150000", "163643.157500", "163645.165000", "163647.172500", "163649.180000", "163651.190000", "163653.197500", "163655.205000", "163657.212500", "163659.222500", "163701.230000", "163703.237500", "163705.245000"],
      "ContentTime": ["163219.453000", "163219.453000", "163219.453000", "163219.453000", "163219.453000", "163219.468000", "163219.468000", "163219.468000", "163219.468000", "163219.484000", "163219.484000", "163219.484000", "163219.484000", "163219.484000", "163219.484000", "163219.484000", "163219.484000", "163219.500000", "163219.500000", "163219.500000", "163259.453000", "163259.453000", "163259.453000", "163259.453000", "163259.453000", "163259.453000", "163259.453000", "163259.453000", "163259.468000", "163259.468000", "163259.468000", "163259.468000", "163259.468000", "163259.468000", "163259.468000", "163259.468000", "163259.484000", "163259.484000", "163259.484000", "163259.484000", "163339.453000", "163339.453000", "163339.453000", "163339.453000", "163339.453000", "163339.453000", "163339.453000", "163339.453000", "163339.468000", "163339.468000", "163339.468000", "163339.468000", "163339.468000", "163339.468000", "163339.468000", "163339.468000", "163339.484000", "163339.484000", "163339.484000", "163339.484000", "163419.453000", "163419.453000", "163419.453000", "163419.453000", "163419.453000", "163419.453000", "163419.468000", "163419.468000", "163419.468000", "163419.468000", "163419.468000", "163419.468000", "163419.484000", "163419.484000", "163419.484000", "163419.484000", "163419.484000", "163419.484000", "163419.500000", "163419.500000", "163459.453000", "163459.453000", "163459.453000", "163459.453000", "163459.453000", "163459.468000", "163459.468000", "163459.468000", "163459.468000", "163459.484000", "163459.484000", "163459.484000", "163459.484000", "163459.484000", "163459.484000", "163459.484000", "163459.500000", "163459.500000", "163459.500000", "163459.500000", "163539.453000", "163539.453000", "163539.453000", "163539.453000", "163539.453000", "163539.453000", "163539.453000", "163539.453000", "163539.468000", "163539.468000", "163539.468000", "163539.468000", "163539.468000", "163539.468000", "163539.468000", "163539.484000", "163539.484000", "163539.484000", "163539.484000", "163539.484000", "163619.453000", "163619.453000", "163619.453000", "163619.453000", "163619.453000", "163619.468000", "163619.468000", "163619.468000", "163619.468000", "163619.468000", "163619.468000", "163619.468000", "163619.484000", "163619.484000", "163619.484000", "163619.484000", "163619.484000", "163619.484000", "163619.484000", "163619.484000", "163659.453000", "163659.453000", "163659.453000", "163659.453000", "163659.453000", "163659.453000", "163659.453000", "163659.453000", "163659.468000", "163659.468000", "163659.468000", "163659.468000", "163659.468000", "163659.468000", "163659.468000", "163659.484000", "163659.484000", "163659.484000", "163659.484000", "163659.484000", "163706.937000", "163706.937000", "163706.937000", "163706.953000"],
      "InstanceCreationTime": ["163219.453000", "163219.453000", "163219.453000", "163219.453000", "163219.453000", "163219.468000", "163219.468000", "163219.468000", "163219.468000", "163219.484000", "163219.484000", "163219.484000", "163219.484000", "163219.484000", "163219.484000", "163219.484000", "163219.484000", "163219.500000", "163219.500000", "163219.500000", "163259.453000", "163259.453000", "163259.453000", "163259.453000", "163259.453000", "163259.453000", "163259.453000", "163259.453000", "163259.468000", "163259.468000", "163259.468000", "163259.468000", "163259.468000", "163259.468000", "163259.468000", "163259.468000", "163259.484000", "163259.484000", "163259.484000", "163259.484000", "163339.453000", "163339.453000", "163339.453000", "163339.453000", "163339.453000", "163339.453000", "163339.453000", "163339.453000", "163339.468000", "163339.468000", "163339.468000", "163339.468000", "163339.468000", "163339.468000", "163339.468000", "163339.468000", "163339.484000", "163339.484000", "163339.484000", "163339.484000", "163419.453000", "163419.453000", "163419.453000", "163419.453000", "163419.453000", "163419.453000", "163419.468000", "163419.468000", "163419.468000", "163419.468000", "163419.468000", "163419.468000", "163419.484000", "163419.484000", "163419.484000", "163419.484000", "163419.484000", "163419.484000", "163419.500000", "163419.500000", "163459.453000", "163459.453000", "163459.453000", "163459.453000", "163459.453000", "163459.468000", "163459.468000", "163459.468000", "163459.468000", "163459.484000", "163459.484000", "163459.484000", "163459.484000", "163459.484000", "163459.484000", "163459.484000", "163459.500000", "163459.500000", "163459.500000", "163459.500000", "163539.453000", "163539.453000", "163539.453000", "163539.453000", "163539.453000", "163539.453000", "163539.453000", "163539.453000", "163539.468000", "163539.468000", "163539.468000", "163539.468000", "163539.468000", "163539.468000", "163539.468000", "163539.484000", "163539.484000", "163539.484000", "163539.484000", "163539.484000", "163619.453000", "163619.453000", "163619.453000", "163619.453000", "163619.453000", "163619.468000", "163619.468000", "163619.468000", "163619.468000", "163619.468000", "163619.468000", "163619.468000", "163619.484000", "163619.484000", "163619.484000", "163619.484000", "163619.484000", "163619.484000", "163619.484000", "163619.484000", "163659.453000", "163659.453000", "163659.453000", "163659.453000", "163659.453000", "163659.453000", "163659.453000", "163659.453000", "163659.468000", "163659.468000", "163659.468000", "163659.468000", "163659.468000", "163659.468000", "163659.468000", "163659.484000", "163659.484000", "163659.484000", "163659.484000", "163659.484000", "163706.937000", "163706.937000", "163706.937000", "163706.953000"],
      "InstanceNumber": [1, 2, 3, 4, 5, 6, 7, 8, 9, 10, 11, 12, 13, 14, 15, 16, 17, 18, 19, 20, 21, 22, 23, 24, 25, 26, 27, 28, 29, 30, 31, 32, 33, 34, 35, 36, 37, 38, 39, 40, 41, 42, 43, 44, 45, 46, 47, 48, 49, 50, 51, 52, 53, 54, 55, 56, 57, 58, 59, 60, 61, 62, 63, 64, 65, 66, 67, 68, 69, 70, 71, 72, 73, 74, 75, 76, 77, 78, 79, 80, 81, 82, 83, 84, 85, 86, 87, 88, 89, 90, 91, 92, 93, 94, 95, 96, 97, 98, 99, 100, 101, 102, 103, 104, 105, 106, 107, 108, 109, 110, 111, 112, 113, 114, 115, 116, 117, 118, 119, 120, 121, 122, 123, 124, 125, 126, 127, 128, 129, 130, 131, 132, 133, 134, 135, 136, 137, 138, 139, 140, 141, 142, 143, 144, 145, 146, 147, 148, 149, 150, 151, 152, 153, 154, 155, 156, 157, 158, 159, 160, 161, 162, 163, 164],
      "LargestImagePixelValue": [1904, 1813, 1786, 1787, 1772, 1790, 1786, 1791, 1786, 1801, 1780, 1774, 1780, 1802, 1783, 1794, 1790, 1788, 1772, 1784, 1770, 1784, 1786, 1800, 1796, 1774, 1789, 1782, 1785, 1795, 1776, 1785, 1780, 1791, 1792, 1788, 1796, 1778, 1785, 1768, 1792, 1785, 1785, 1778, 1784, 1779, 1783, 1776, 1768, 1784, 1785, 1786, 1786, 1771, 1785, 1780, 1777, 1786, 1782, 1791, 1780, 1786, 1768, 1773, 1784, 1784, 1788, 1775, 1792, 1778, 1778, 1781, 1775, 1785, 1775, 1779, 1779, 1778, 1769, 1776, 1771, 1766, 1773, 1772, 1779, 1758, 1769, 1768, 1776, 1774, 1766, 1770, 1766, 1772, 1772, 1775, 1788, 1767, 1777, 1761, 1767, 1770, 1774, 1769, 1759, 1776, 1772, 1770, 1766, 1769, 1784, 1766, 1775, 1761, 1777, 1759, 1767, 1774, 1781, 1763, 1773, 1774, 1775, 1773, 1764, 1780, 1772, 1782, 1768, 1777, 1779, 1787, 1799, 1780, 1778, 1778, 1778, 1783, 1780, 1773, 1787, 1779, 1778, 1779, 1769, 1779, 1774, 1771, 1781, 1778, 1775, 1777, 1778, 1774, 1771, 1793, 1774, 1773, 1770, 1778, 1783, 1780, 1788, 1781],
      "WindowCenter": [706.0, 702.0, 702.0, 702.0, 701.0, 701.0, 700.0, 700.0, 700.0, 701.0, 701.0, 700.0, 700.0, 700.0, 700.0, 700.0, 700.0, 700.0, 700.0, 700.0, 700.0, 700.0, 700.0, 701.0, 701.0, 700.0, 700.0, 700.0, 700.0, 700.0, 701.0, 701.0, 701.0, 701.0, 701.0, 701.0, 701.0, 702.0, 702.0, 701.0, 702.0, 702.0, 702.0, 702.0, 702.0, 701.0, 701.0, 701.0, 701.0, 701.0, 701.0, 701.0, 701.0, 701.0, 702.0, 702.0, 702.0, 702.0, 702.0, 702.0, 702.0, 702.0, 701.0, 701.0, 701.0, 702.0, 702.0, 702.0, 702.0, 702.0, 703.0, 703.0, 702.0, 702.0, 702.0, 702.0, 702.0, 702.0, 702.0, 702.0, 702.0, 701.0, 702.0, 701.0, 701.0, 701.0, 701.0, 701.0, 701.0, 702.0, 701.0, 702.0, 702.0, 702.0, 702.0, 702.0, 702.0, 702.0, 702.0, 701.0, 702.0, 702.0, 702.0, 701.0, 701.0, 701.0, 701.0, 701.0, 701.0, 701.0, 701.0, 702.0, 701.0, 701.0, 701.0, 701.0, 701.0, 701.0, 701.0, 701.0, 701.0, 701.0, 701.0, 702.0, 702.0, 702.0, 702.0, 702.0, 702.0, 703.0, 703.0, 703.0, 702.0, 702.0, 703.0, 703.0, 703.0, 702.0, 702.0, 701.0, 701.0, 702.0, 702.0, 702.0, 702.0, 702.0, 702.0, 701.0, 701.0, 701.0, 702.0, 702.0, 702.0, 703.0, 703.0, 702.0, 702.0, 702.0, 702.0, 702.0, 702.0, 702.0, 702.0, 702.0],
      "WindowWidth": [1528.0, 1518.0, 1516.0, 1517.0, 1515.0, 1513.0, 1512.0, 1513.0, 1513.0, 1513.0, 1513.0, 1513.0, 1512.0, 1513.0, 1511.0, 1511.0, 1512.0, 1512.0, 1512.0, 1511.0, 1511.0, 1512.0, 1512.0, 1513.0, 1513.0, 1512.0, 1512.0, 1512.0, 1512.0, 1512.0, 1513.0, 1513.0, 1514.0, 1514.0, 1514.0, 1515.0, 1515.0, 1516.0, 1517.0, 1515.0, 1517.0, 1518.0, 1516.0, 1516.0, 1516.0, 1515.0, 1515.0, 1515.0, 1514.0, 1515.0, 1515.0, 1515.0, 1515.0, 1515.0, 1516.0, 1517.0, 1518.0, 1517.0, 1516.0, 1517.0, 1516.0, 1516.0, 1515.0, 1515.0, 1515.0, 1516.0, 1516.0, 1516.0, 1518.0, 1518.0, 1519.0, 1519.0, 1518.0, 1517.0, 1516.0, 1516.0, 1516.0, 1516.0, 1516.0, 1516.0, 1517.0, 1515.0, 1517.0, 1515.0, 1515.0, 1514.0, 1515.0, 1514.0, 1516.0, 1516.0, 1515.0, 1517.0, 1516.0, 1516.0, 1516.0, 1517.0, 1518.0, 1517.0, 1517.0, 1515.0, 1516.0, 1516.0, 1516.0, 1515.0, 1514.0, 1514.0, 1513.0, 1515.0, 1513.0, 1514.0, 1516.0, 1516.0, 1515.0, 1515.0, 1516.0, 1515.0, 1515.0, 1515.0, 1516.0, 1515.0, 1515.0, 1514.0, 1515.0, 1516.0, 1517.0, 1518.0, 1518.0, 1518.0, 1518.0, 1519.0, 1519.0, 1518.0, 1518.0, 1518.0, 1519.0, 1519.0, 1519.0, 1518.0, 1517.0, 1516.0, 1516.0, 1516.0, 1517.0, 1517.0, 1518.0, 1519.0, 1517.0, 1516.0, 1515.0, 1515.0, 1516.0, 1517.0, 1517.0, 1519.0, 1519.0, 1518.0, 1517.0, 1517.0, 1516.0, 1516.0, 1517.0, 1517.0, 1518.0, 1518.0]
    },
    "slices": {}
  }
}