{
  "AcquisitionMatrixPE": 64,
  "AcquisitionNumber": 1,
  "AcquisitionTime": "16:25:17.065000",
  "BandwidthPerPixelPhaseEncode": 33.967,
  "BaseResolution": 64,
  "CoilCombinationMethod": "Sum of Squares",
  "CoilString": "C:HEA;HEP",
  "ConversionSoftware": "dcm2niix",
  "ConversionSoftwareVersion": "v1.0.20220720",
  "DerivedVendorReportedEchoSpacing": 0.000460005,
  "DeviceSerialNumber": "35193",
  "DwellTime": 3.1e-06,
  "EchoTime": 0.03,
  "EffectiveEchoSpacing": 0.000460005,
  "FlipAngle": 90,
  "HeudiconvVersion": "1.1.6",
  "ImageOrientationPatientDICOM": [1, 0, 0, 0, 1, 0],
  "ImageOrientationText": "Tra",
  "ImageType": [
    "ORIGINAL",
    "PRIMARY",
    "M",
    "ND",
    "MOSAIC"
],
  "ImagingFrequency": 123.254,
  "InPlanePhaseEncodingDirectionDICOM": "COL",
  "InstitutionAddress": "Xinjiekouwai Street No 19,Beijing,Haidian District,CN,100875",
  "InstitutionName": "BNU MRI Center",
  "InstitutionalDepartmentName": "Department",
  "MRAcquisitionType": "2D",
  "MagneticFieldStrength": 3,
  "Manufacturer": "Siemens",
  "ManufacturersModelName": "TrioTim",
  "MatrixCoilMode": "SENSE",
  "Modality": "MR",
  "NonlinearGradientCorrection": false,
  "PartialFourier": 1,
  "PatientPosition": "HFS",
  "PercentPhaseFOV": 100,
  "PercentSampling": 100,
  "PhaseEncodingDirection": "j-",
  "PhaseEncodingSteps": 64,
  "PhaseResolution": 1,
  "PixelBandwidth": 2520,
  "ProcedureStepDescription": "BNU_cst_2015^Guo.TaoMei",
  "ProtocolName": "ge_func_3x3x4_164",
  "PulseSequenceDetails": "%SiemensSeq%\\ep2d_bold",
  "ReceiveCoilName": "HeadMatrix",
  "ReconMatrixPE": 64,
  "RepetitionTime": 2,
  "SAR": 0.145143,
  "ScanOptions": "FS",
  "ScanningSequence": "EP",
  "SequenceName": "*epfid2d1_64",
  "SequenceVariant": "SK",
  "SeriesDescription": "ge_func_3x3x4_164",
  "SeriesNumber": 2,
  "ShimSetting": [-4488, -19446, -9802, 1211, -145, -312, -114, -202],
  "SliceThickness": 4,
  "SliceTiming": [0, 1.035, 0.06, 1.095, 0.1225, 1.155, 0.1825, 1.2175, 0.2425, 1.2775, 0.305, 1.3375, 0.365, 1.4, 0.425, 1.46, 0.4875, 1.52, 0.5475, 1.5825, 0.6075, 1.6425, 0.67, 1.7025, 0.73, 1.765, 0.79, 1.825, 0.8525, 1.885, 0.9125, 1.9475, 0.9725],
  "SoftwareVersions": "syngo MR B17",
  "SpacingBetweenSlices": 4.6,
  "StationName": "MRC35193",
  "TaskName": "CognitiveControl",
  "TotalReadoutTime": 0.0289803,
  "TxRefAmp": 327.36,
  "dcmmeta_affine": [
    [-3.125, 0.0, 0.0, 106.74698638916016],
    [0.0, 3.125, 0.0, -67.1882553100586],
    [0.0, 0.0, 4.599999904632568, -43.91325378417969],
    [0.0, 0.0, 0.0, 1.0]
],
  "dcmmeta_reorient_transform": [
    [0.0, -1.0, 0.0, 63.0],
    [1.0, 0.0, 0.0, 0.0],
    [0.0, 0.0, 1.0, 0.0],
    [0.0, 0.0, 0.0, 1.0]
],
  "dcmmeta_shape": [64, 64, 33, 164],
  "dcmmeta_slice_dim": 2,
  "dcmmeta_version": 0.6,
  "global": {
    "const": {
      "AcquisitionMatrix": [64, 0, 0, 64],
      "AngioFlag": "N",
      "BitsAllocated": 16,
      "BitsStored": 12,
      "Columns": 384,
      "EchoNumbers": 1,
      "EchoTime": 30.0,
      "EchoTrainLength": 1,
      "FlipAngle": 90.0,
      "HighBit": 11,
      "ImageOrientationPatient": [1.0, 0.0, 0.0, 0.0, 1.0, 0.0],
      "ImagePositionPatient": [-606.74698781967, -629.68674659729, -43.91325378418],
      "ImageType": [
        "ORIGINAL",
        "PRIMARY",
        "M",
        "ND",
        "MOSAIC"
],
      "ImagedNucleus": "1H",
      "ImagingFrequency": 123.253676,
      "InPlanePhaseEncodingDirection": "COL",
      "MRAcquisitionType": "2D",
      "MagneticFieldStrength": 3.0,
      "Manufacturer": "SIEMENS",
      "ManufacturerModelName": "TrioTim",
      "Modality": "MR",
      "NumberOfAverages": 1.0,
      "NumberOfPhaseEncodingSteps": 64,
      "PercentPhaseFieldOfView": 100.0,
      "PercentSampling": 100.0,
      "PerformedProcedureStepStartTime": "162004.750000",
      "PhotometricInterpretation": "MONOCHROME2",
      "PixelBandwidth": 2520.0,
      "PixelRepresentation": 0,
      "PixelSpacing": [3.125, 3.125],
      "ProtocolName": "ge_func_3x3x4_164",
      "RepetitionTime": 2000.0,
      "Rows": 384,
      "SAR": 0.14514315230077,
      "SamplesPerPixel": 1,
      "ScanOptions": "FS",
      "ScanningSequence": "EP",
      "SequenceName": "*epfid2d1_64",
      "SequenceVariant": "SK",
      "SeriesDescription": "ge_func_3x3x4_164",
      "SeriesNumber": 2,
      "SeriesTime": "162605.750000",
      "SliceLocation": -43.91325378418,
      "SliceThickness": 4.0,
      "SmallestImagePixelValue": 0,
      "SoftwareVersions": "syngo MR B17",
      "SpacingBetweenSlices": 4.6000001430511,
      "SpecificCharacterSet": "ISO_IR 100",
      "StudyID": "1",
      "StudyTime": "162004.671000",
      "TransmitCoilName": "Body",
      "VariableFlipAngleFlag": "N",
      "WindowCenterWidthExplanation": "Algo1",
      "dBdt": 0.0},
    "slices": {}
  },
  "time": {
    "samples": {
      "AcquisitionNumber": [1, 2, 3, 4, 5, 6, 7, 8, 9, 10, 11, 12, 13, 14, 15, 16, 17, 18, 19, 20, 21, 22, 23, 24, 25, 26, 27, 28, 29, 30, 31, 32, 33, 34, 35, 36, 37, 38, 39, 40, 41, 42, 43, 44, 45, 46, 47, 48, 49, 50, 51, 52, 53, 54, 55, 56, 57, 58, 59, 60, 61, 62, 63, 64, 65, 66, 67, 68, 69, 70, 71, 72, 73, 74, 75, 76, 77, 78, 79, 80, 81, 82, 83, 84, 85, 86, 87, 88, 89, 90, 91, 92, 93, 94, 95, 96, 97, 98, 99, 100, 101, 102, 103, 104, 105, 106, 107, 108, 109, 110, 111, 112, 113, 114, 115, 116, 117, 118, 119, 120, 121, 122, 123, 124, 125, 126, 127, 128, 129, 130, 131, 132, 133, 134, 135, 136, 137, 138, 139, 140, 141, 142, 143, 144, 145, 146, 147, 148, 149, 150, 151, 152, 153, 154, 155, 156, 157, 158, 159, 160, 161, 162, 163, 164],
      "AcquisitionTime": ["162517.065000", "162519.072500", "162521.080000", "162523.090000", "162525.097500", "162527.105000", "162529.112500", "162531.122500", "162533.130000", "162535.137500", "162537.145000", "162539.152500", "162541.162500", "162543.170000", "162545.177500", "162547.185000", "162549.192500", "162551.202500", "162553.210000", "162555.217500", "162557.225000", "162559.232500", "162601.242500", "162603.250000", "162605.257500", "162607.265000", "162609.275000", "162611.282500", "162613.290000", "162615.297500", "162617.305000", "162619.315000", "162621.322500", "162623.330000", "162625.337500", "162627.345000", "162629.355000", "162631.362500", "162633.370000", "162635.377500", "162637.387500", "162639.395000", "162641.402500", "162643.410000", "162645.417500", "162647.427500", "162649.435000", "162651.442500", "162653.450000", "162655.457500", "162657.467500", "162659.475000", "162701.482500", "162703.490000", "162705.500000", "162707.507500", "162709.515000", "162711.522500", "162713.530000", "162715.540000", "162717.547500", "162719.555000", "162721.562500", "162723.570000", "162725.580000", "162727.587500", "162729.595000", "162731.602500", "162733.610000", "162735.620000", "162737.627500", "162739.635000", "162741.642500", "162743.652500", "162745.660000", "162747.667500", "162749.675000", "162751.682500", "162753.692500", "162755.700000", "162757.707500", "162759.715000", "162801.722500", "162803.732500", "162805.740000", "162807.747500", "162809.755000", "162811.765000", "162813.772500", "162815.780000", "162817.787500", "162819.795000", "162821.805000", "162823.812500", "162825.820000", "162827.827500", "162829.835000", "162831.845000", "162833.852500", "162835.860000", "162837.867500", "162839.877500", "162841.885000", "162843.892500", "162845.900000", "162847.907500", "162849.917500", "162851.925000", "162853.932500", "162855.940000", "162857.947500", "162859.957500", "162901.965000", "162903.972500", "162905.980000", "162907.990000", "162909.997500", "162912.005000", "162914.012500", "162916.020000", "162918.030000", "162920.037500", "162922.045000", "162924.052500", "162926.060000", "162928.070000", "162930.077500", "162932.085000", "162934.092500", "162936.100000", "162938.110000", "162940.117500", "162942.125000", "162944.132500", "162946.142500", "162948.150000", "162950.157500", "162952.165000", "162954.172500", "162956.182500", "162958.190000", "163000.197500", "163002.205000", "163004.212500", "163006.222500", "163008.230000", "163010.237500", "163012.245000", "163014.255000", "163016.262500", "163018.270000", "163020.277500", "163022.285000", "163024.295000", "163026.302500", "163028.310000", "163030.317500", "163032.325000", "163034.335000", "163036.342500", "163038.350000", "163040.357500", "163042.367500", "163044.375000"],
      "ContentTime": ["162605.750000", "162605.750000", "162605.750000", "162605.750000", "162605.765000", "162605.765000", "162605.765000", "162605.781000", "162605.781000", "162605.781000", "162605.781000", "162605.781000", "162605.781000", "162605.781000", "162605.796000", "162605.796000", "162605.796000", "162605.796000", "162605.796000", "162605.796000", "162605.796000", "162605.812000", "162605.812000", "162645.750000", "162645.750000", "162645.750000", "162645.750000", "162645.750000", "162645.750000", "162645.750000", "162645.750000", "162645.765000", "162645.765000", "162645.765000", "162645.781000", "162645.781000", "162645.781000", "162645.781000", "162645.781000", "162645.781000", "162645.781000", "162645.781000", "162645.796000", "162725.750000", "162725.750000", "162725.750000", "162725.750000", "162725.750000", "162725.750000", "162725.750000", "162725.765000", "162725.765000", "162725.765000", "162725.765000", "162725.765000", "162725.781000", "162725.781000", "162725.781000", "162725.781000", "162725.781000", "162725.781000", "162725.796000", "162725.796000", "162805.734000", "162805.750000", "162805.750000", "162805.750000", "162805.750000", "162805.750000", "162805.750000", "162805.750000", "162805.750000", "162805.750000", "162805.765000", "162805.765000", "162805.765000", "162805.765000", "162805.765000", "162805.765000", "162805.765000", "162805.765000", "162805.781000", "162805.781000", "162845.750000", "162845.750000", "162845.750000", "162845.750000", "162845.750000", "162845.750000", "162845.765000", "162845.765000", "162845.765000", "162845.765000", "162845.765000", "162845.765000", "162845.781000", "162845.781000", "162845.781000", "162845.781000", "162845.781000", "162845.781000", "162845.796000", "162845.796000", "162925.750000", "162925.750000", "162925.750000", "162925.750000", "162925.750000", "162925.750000", "162925.750000", "162925.765000", "162925.765000", "162925.765000", "162925.765000", "162925.765000", "162925.765000", "162925.765000", "162925.765000", "162925.781000", "162925.781000", "162925.781000", "162925.781000", "162925.781000", "163005.750000", "163005.750000", "163005.750000", "163005.765000", "163005.765000", "163005.765000", "163005.765000", "163005.765000", "163005.765000", "163005.765000", "163005.765000", "163005.781000", "163005.781000", "163005.781000", "163005.781000", "163005.781000", "163005.781000", "163005.781000", "163005.781000", "163005.796000", "163045.750000", "163045.750000", "163045.750000", "163045.750000", "163045.750000", "163045.750000", "163045.750000", "163045.765000", "163045.765000", "163045.765000", "163045.765000", "163045.765000", "163045.765000", "163045.765000", "163045.765000", "163045.781000", "163045.781000", "163045.781000", "163045.781000", "163045.781000", "163046.437000"],
      "InstanceCreationTime": ["162605.750000", "162605.750000", "162605.750000", "162605.750000", "162605.765000", "162605.765000", "162605.765000", "162605.781000", "162605.781000", "162605.781000", "162605.781000", "162605.781000", "162605.781000", "162605.781000", "162605.796000", "162605.796000", "162605.796000", "162605.796000", "162605.796000", "162605.796000", "162605.796000", "162605.812000", "162605.812000", "162645.750000", "162645.750000", "162645.750000", "162645.750000", "162645.750000", "162645.750000", "162645.750000", "162645.750000", "162645.765000", "162645.765000", "162645.765000", "162645.781000", "162645.781000", "162645.781000", "162645.781000", "162645.781000", "162645.781000", "162645.781000", "162645.781000", "162645.796000", "162725.750000", "162725.750000", "162725.750000", "162725.750000", "162725.750000", "162725.750000", "162725.750000", "162725.765000", "162725.765000", "162725.765000", "162725.765000", "162725.765000", "162725.781000", "162725.781000", "162725.781000", "162725.781000", "162725.781000", "162725.781000", "162725.796000", "162725.796000", "162805.734000", "162805.750000", "162805.750000", "162805.750000", "162805.750000", "162805.750000", "162805.750000", "162805.750000", "162805.750000", "162805.750000", "162805.765000", "162805.765000", "162805.765000", "162805.765000", "162805.765000", "162805.765000", "162805.765000", "162805.765000", "162805.781000", "162805.781000", "162845.750000", "162845.750000", "162845.750000", "162845.750000", "162845.750000", "162845.750000", "162845.765000", "162845.765000", "162845.765000", "162845.765000", "162845.765000", "162845.765000", "162845.781000", "162845.781000", "162845.781000", "162845.781000", "162845.781000", "162845.781000", "162845.796000", "162845.796000", "162925.750000", "162925.750000", "162925.750000", "162925.750000", "162925.750000", "162925.750000", "162925.750000", "162925.765000", "162925.765000", "162925.765000", "162925.765000", "162925.765000", "162925.765000", "162925.765000", "162925.765000", "162925.781000", "162925.781000", "162925.781000", "162925.781000", "162925.781000", "163005.750000", "163005.750000", "163005.750000", "163005.765000", "163005.765000", "163005.765000", "163005.765000", "163005.765000", "163005.765000", "163005.765000", "163005.765000", "163005.781000", "163005.781000", "163005.781000", "163005.781000", "163005.781000", "163005.781000", "163005.781000", "163005.781000", "163005.796000", "163045.750000", "163045.750000", "163045.750000", "163045.750000", "163045.750000", "163045.750000", "163045.750000", "163045.765000", "163045.765000", "163045.765000", "163045.765000", "163045.765000", "163045.765000", "163045.765000", "163045.765000", "163045.781000", "163045.781000", "163045.781000", "163045.781000", "163045.781000", "163046.437000"],
      "InstanceNumber": [1, 2, 3, 4, 5, 6, 7, 8, 9, 10, 11, 12, 13, 14, 15, 16, 17, 18, 19, 20, 21, 22, 23, 24, 25, 26, 27, 28, 29, 30, 31, 32, 33, 34, 35, 36, 37, 38, 39, 40, 41, 42, 43, 44, 45, 46, 47, 48, 49, 50, 51, 52, 53, 54, 55, 56, 57, 58, 59, 60, 61, 62, 63, 64, 65, 66, 67, 68, 69, 70, 71, 72, 73, 74, 75, 76, 77, 78, 79, 80, 81, 82, 83, 84, 85, 86, 87, 88, 89, 90, 91, 92, 93, 94, 95, 96, 97, 98, 99, 100, 101, 102, 103, 104, 105, 106, 107, 108, 109, 110, 111, 112, 113, 114, 115, 116, 117, 118, 119, 120, 121, 122, 123, 124, 125, 126, 127, 128, 129, 130, 131, 132, 133, 134, 135, 136, 137, 138, 139, 140, 141, 142, 143, 144, 145, 146, 147, 148, 149, 150, 151, 152, 153, 154, 155, 156, 157, 158, 159, 160, 161, 162, 163, 164],
      "LargestImagePixelValue": [1840, 1789, 1751, 1762, 1733, 1743, 1748, 1738, 1753, 1738, 1732, 1731, 1731, 1726, 1743, 1741, 1755, 1738, 1756, 1739, 1734, 1759, 1743, 1734, 1746, 1755, 1744, 1761, 1754, 1766, 1750, 1750, 1774, 1753, 1764, 1768, 1745, 1788, 1749, 1765, 1766, 1750, 1759, 1754, 1773, 1758, 1747, 1765, 1752, 1768, 1755, 1752, 1752, 1754, 1766, 1768, 1760, 1768, 1751, 1779, 1757, 1764, 1761, 1757, 1769, 1760, 1764, 1754, 1765, 1756, 1772, 1758, 1769, 1755, 1776, 1767, 1764, 1771, 1772, 1756, 1771, 1761, 1768, 1771, 1758, 1773, 1769, 1772, 1757, 1761, 1766, 1772, 1775, 1757, 1766, 1760, 1777, 1750, 1779, 1764, 1768, 1770, 1769, 1772, 1765, 1768, 1783, 1758, 1776, 1763, 1772, 1767, 1763, 1773, 1776, 1768, 1776, 1770, 1774, 1775, 1774, 1769, 1778, 1775, 1766, 1765, 1781, 1774, 1798, 1782, 1786, 1771, 1773, 1777, 1780, 1785, 1780, 1778, 1779, 1776, 1773, 1774, 1790, 1782, 1786, 1778, 1783, 1776, 1775, 1775, 1782, 1784, 1790, 1789, 1773, 1762, 1787, 1782, 1785, 1795, 1796, 1783, 1778, 1780],
      "WindowCenter": [703.0, 701.0, 701.0, 700.0, 700.0, 700.0, 700.0, 700.0, 700.0, 700.0, 700.0, 700.0, 700.0, 700.0, 700.0, 700.0, 700.0, 699.0, 700.0, 700.0, 699.0, 700.0, 700.0, 700.0, 700.0, 700.0, 700.0, 699.0, 700.0, 700.0, 701.0, 700.0, 700.0, 700.0, 700.0, 700.0, 700.0, 701.0, 701.0, 701.0, 700.0, 700.0, 700.0, 700.0, 701.0, 701.0, 700.0, 700.0, 699.0, 699.0, 700.0, 700.0, 699.0, 700.0, 700.0, 700.0, 700.0, 700.0, 700.0, 700.0, 700.0, 700.0, 700.0, 700.0, 701.0, 701.0, 701.0, 701.0, 700.0, 700.0, 700.0, 700.0, 701.0, 700.0, 700.0, 700.0, 700.0, 700.0, 700.0, 700.0, 700.0, 700.0, 700.0, 700.0, 700.0, 701.0, 700.0, 701.0, 700.0, 700.0, 699.0, 699.0, 700.0, 699.0, 700.0, 700.0, 700.0, 700.0, 700.0, 700.0, 700.0, 700.0, 700.0, 700.0, 700.0, 699.0, 700.0, 701.0, 701.0, 701.0, 701.0, 701.0, 700.0, 701.0, 701.0, 701.0, 701.0, 700.0, 700.0, 701.0, 701.0, 701.0, 701.0, 701.0, 701.0, 701.0, 701.0, 701.0, 702.0, 701.0, 701.0, 701.0, 700.0, 701.0, 701.0, 701.0, 701.0, 701.0, 700.0, 701.0, 701.0, 702.0, 701.0, 701.0, 701.0, 700.0, 700.0, 700.0, 700.0, 701.0, 701.0, 701.0, 701.0, 701.0, 701.0, 701.0, 701.0, 701.0, 701.0, 701.0, 701.0, 701.0, 701.0, 701.0],
      "WindowWidth": [1521.0, 1514.0, 1514.0, 1512.0, 1511.0, 1511.0, 1513.0, 1512.0, 1512.0, 1511.0, 1511.0, 1512.0, 1512.0, 1513.0, 1512.0, 1512.0, 1511.0, 1510.0, 1512.0, 1511.0, 1510.0, 1511.0, 1511.0, 1510.0, 1511.0, 1511.0, 1511.0, 1510.0, 1511.0, 1512.0, 1514.0, 1512.0, 1513.0, 1512.0, 1511.0, 1513.0, 1513.0, 1514.0, 1513.0, 1514.0, 1513.0, 1511.0, 1511.0, 1512.0, 1514.0, 1515.0, 1512.0, 1512.0, 1509.0, 1510.0, 1512.0, 1511.0, 1510.0, 1511.0, 1511.0, 1512.0, 1511.0, 1511.0, 1511.0, 1511.0, 1512.0, 1512.0, 1512.0, 1513.0, 1514.0, 1514.0, 1516.0, 1514.0, 1513.0, 1512.0, 1513.0, 1512.0, 1513.0, 1512.0, 1512.0, 1512.0, 1511.0, 1512.0, 1513.0, 1511.0, 1513.0, 1511.0, 1511.0, 1511.0, 1511.0, 1514.0, 1513.0, 1513.0, 1511.0, 1511.0, 1510.0, 1510.0, 1511.0, 1509.0, 1511.0, 1512.0, 1512.0, 1512.0, 1512.0, 1512.0, 1512.0, 1513.0, 1512.0, 1513.0, 1510.0, 1510.0, 1511.0, 1513.0, 1516.0, 1516.0, 1514.0, 1513.0, 1512.0, 1514.0, 1515.0, 1514.0, 1513.0, 1513.0, 1513.0, 1514.0, 1515.0, 1513.0, 1513.0, 1516.0, 1514.0, 1515.0, 1513.0, 1514.0, 1516.0, 1514.0, 1515.0, 1514.0, 1512.0, 1513.0, 1514.0, 1515.0, 1515.0, 1514.0, 1513.0, 1514.0, 1516.0, 1516.0, 1515.0, 1514.0, 1513.0, 1512.0, 1512.0, 1513.0, 1512.0, 1513.0, 1515.0, 1514.0, 1515.0, 1515.0, 1515.0, 1514.0, 1514.0, 1515.0, 1516.0, 1515.0, 1515.0, 1515.0, 1513.0, 1514.0]
    },
    "slices": {}
  }
}