{
  "AcquisitionMatrixPE": 64,
  "AcquisitionNumber": 1,
  "AcquisitionTime": "15:28:56.692500",
  "BandwidthPerPixelPhaseEncode": 33.967,
  "BaseResolution": 64,
  "CoilCombinationMethod": "Sum of Squares",
  "CoilString": "C:HEA;HEP",
  "ConversionSoftware": "dcm2niix",
  "ConversionSoftwareVersion": "v1.0.20220720",
  "DerivedVendorReportedEchoSpacing": 0.000460005,
  "DeviceSerialNumber": "35193",
  "DwellTime": 3.1e-06,
  "EchoTime": 0.03,
  "EffectiveEchoSpacing": 0.000460005,
  "FlipAngle": 90,
  "HeudiconvVersion": "1.1.6",
  "ImageOrientationPatientDICOM": [0.999962, 0, -0.00872654, 0, 1, 0],
  "ImageOrientationText": "Tra>Sag(-0.5)",
  "ImageType": [
    "ORIGINAL",
    "PRIMARY",
    "M",
    "ND",
    "MOSAIC"
],
  "ImagingFrequency": 123.254,
  "InPlanePhaseEncodingDirectionDICOM": "COL",
  "InstitutionAddress": "Xinjiekouwai Street No 19,Beijing,Haidian District,CN,100875",
  "InstitutionName": "BNU MRI Center",
  "InstitutionalDepartmentName": "Department",
  "MRAcquisitionType": "2D",
  "MagneticFieldStrength": 3,
  "Manufacturer": "Siemens",
  "ManufacturersModelName": "TrioTim",
  "MatrixCoilMode": "SENSE",
  "Modality": "MR",
  "NonlinearGradientCorrection": false,
  "PartialFourier": 1,
  "PatientPosition": "HFS",
  "PercentPhaseFOV": 100,
  "PercentSampling": 100,
  "PhaseEncodingDirection": "j-",
  "PhaseEncodingSteps": 64,
  "PhaseResolution": 1,
  "PixelBandwidth": 2520,
  "ProcedureStepDescription": "BNU_cst_2015^Guo.TaoMei",
  "ProtocolName": "ge_func_3x3x4_164",
  "PulseSequenceDetails": "%SiemensSeq%\\ep2d_bold",
  "ReceiveCoilName": "HeadMatrix",
  "ReconMatrixPE": 64,
  "RepetitionTime": 2,
  "SAR": 0.135898,
  "ScanOptions": "FS",
  "ScanningSequence": "EP",
  "SequenceName": "*epfid2d1_64",
  "SequenceVariant": "SK",
  "SeriesDescription": "ge_func_3x3x4_164",
  "SeriesNumber": 6,
  "ShimSetting": [-4474, -19474, -9805, 1227, 116, -676, 64, 18],
  "SliceThickness": 4,
  "SliceTiming": [0, 1.0325, 0.06, 1.095, 0.12, 1.155, 0.1825, 1.215, 0.2425, 1.2775, 0.3025, 1.3375, 0.365, 1.3975, 0.425, 1.46, 0.485, 1.52, 0.5475, 1.58, 0.6075, 1.6425, 0.6675, 1.7025, 0.73, 1.7625, 0.79, 1.825, 0.85, 1.885, 0.9125, 1.945, 0.9725],
  "SoftwareVersions": "syngo MR B17",
  "SpacingBetweenSlices": 4.6,
  "StationName": "MRC35193",
  "TaskName": "LanguageControl",
  "TotalReadoutTime": 0.0289803,
  "TxRefAmp": 327.773,
  "dcmmeta_affine": [
    [-3.1248810291290283, 0.0, -0.04014206305146217, 100.63846588134766],
    [0.0, 3.125, 0.0, -90.8027114868164],
    [-0.027270423248410225, 0.0, 4.599824905395508, -49.784786224365234],
    [0.0, 0.0, 0.0, 1.0]
],
  "dcmmeta_reorient_transform": [
    [0.0, -1.0, 0.0, 63.0],
    [1.0, 0.0, 0.0, 0.0],
    [0.0, 0.0, 1.0, 0.0],
    [0.0, 0.0, 0.0, 1.0]
],
  "dcmmeta_shape": [64, 64, 33, 164],
  "dcmmeta_slice_dim": 2,
  "dcmmeta_version": 0.6,
  "global": {
    "const": {
      "AcquisitionMatrix": [64, 0, 0, 64],
      "AngioFlag": "N",
      "BitsAllocated": 16,
      "BitsStored": 12,
      "Columns": 384,
      "EchoNumbers": 1,
      "EchoTime": 30.0,
      "EchoTrainLength": 1,
      "FlipAngle": 90.0,
      "HighBit": 11,
      "ImageOrientationPatient": [0.99996192306517, 0.0, -0.0087265353836, 0.0, 1.0, 0.0],
      "ImagePositionPatient": [-600.61942684793, -606.07228899002, -45.421518955366],
      "ImageType": [
        "ORIGINAL",
        "PRIMARY",
        "M",
        "ND",
        "MOSAIC"
],
      "ImagedNucleus": "1H",
      "ImagingFrequency": 123.253891,
      "InPlanePhaseEncodingDirection": "COL",
      "MRAcquisitionType": "2D",
      "MagneticFieldStrength": 3.0,
      "Manufacturer": "SIEMENS",
      "ManufacturerModelName": "TrioTim",
      "Modality": "MR",
      "NumberOfAverages": 1.0,
      "NumberOfPhaseEncodingSteps": 64,
      "PercentPhaseFieldOfView": 100.0,
      "PercentSampling": 100.0,
      "PerformedProcedureStepStartTime": "150236.765000",
      "PhotometricInterpretation": "MONOCHROME2",
      "PixelBandwidth": 2520.0,
      "PixelRepresentation": 0,
      "PixelSpacing": [3.125, 3.125],
      "ProtocolName": "ge_func_3x3x4_164",
      "RepetitionTime": 2000.0,
      "Rows": 384,
      "SAR": 0.13589814636709,
      "SamplesPerPixel": 1,
      "ScanOptions": "FS",
      "ScanningSequence": "EP",
      "SequenceName": "*epfid2d1_64",
      "SequenceVariant": "SK",
      "SeriesDescription": "ge_func_3x3x4_164",
      "SeriesNumber": 6,
      "SeriesTime": "152905.234000",
      "SliceLocation": -50.661116123636,
      "SliceThickness": 4.0,
      "SmallestImagePixelValue": 0,
      "SoftwareVersions": "syngo MR B17",
      "SpacingBetweenSlices": 4.600000059296,
      "SpecificCharacterSet": "ISO_IR 100",
      "StudyID": "1",
      "StudyTime": "150236.687000",
      "TransmitCoilName": "Body",
      "VariableFlipAngleFlag": "N",
      "WindowCenterWidthExplanation": "Algo1",
      "dBdt": 0.0},
    "slices": {}
  },
  "time": {
    "samples": {
      "AcquisitionNumber": [1, 2, 3, 4, 5, 6, 7, 8, 9, 10, 11, 12, 13, 14, 15, 16, 17, 18, 19, 20, 21, 22, 23, 24, 25, 26, 27, 28, 29, 30, 31, 32, 33, 34, 35, 36, 37, 38, 39, 40, 41, 42, 43, 44, 45, 46, 47, 48, 49, 50, 51, 52, 53, 54, 55, 56, 57, 58, 59, 60, 61, 62, 63, 64, 65, 66, 67, 68, 69, 70, 71, 72, 73, 74, 75, 76, 77, 78, 79, 80, 81, 82, 83, 84, 85, 86, 87, 88, 89, 90, 91, 92, 93, 94, 95, 96, 97, 98, 99, 100, 101, 102, 103, 104, 105, 106, 107, 108, 109, 110, 111, 112, 113, 114, 115, 116, 117, 118, 119, 120, 121, 122, 123, 124, 125, 126, 127, 128, 129, 130, 131, 132, 133, 134, 135, 136, 137, 138, 139, 140, 141, 142, 143, 144, 145, 146, 147, 148, 149, 150, 151, 152, 153, 154, 155, 156, 157, 158, 159, 160, 161, 162, 163, 164],
      "AcquisitionTime": ["152856.692500", "152858.700000", "152900.707500", "152902.715000", "152904.725000", "152906.732500", "152908.740000", "152910.747500", "152912.755000", "152914.765000", "152916.772500", "152918.780000", "152920.787500", "152922.795000", "152924.805000", "152926.812500", "152928.820000", "152930.827500", "152932.837500", "152934.845000", "152936.852500", "152938.860000", "152940.867500", "152942.877500", "152944.885000", "152946.892500", "152948.900000", "152950.907500", "152952.917500", "152954.925000", "152956.932500", "152958.940000", "153000.950000", "153002.957500", "153004.965000", "153006.972500", "153008.980000", "153010.990000", "153012.997500", "153015.005000", "153017.012500", "153019.020000", "153021.030000", "153023.037500", "153025.045000", "153027.052500", "153029.062500", "153031.070000", "153033.077500", "153035.085000", "153037.092500", "153039.102500", "153041.110000", "153043.117500", "153045.125000", "153047.132500", "153049.142500", "153051.150000", "153053.157500", "153055.165000", "153057.172500", "153059.182500", "153101.190000", "153103.197500", "153105.205000", "153107.215000", "153109.222500", "153111.230000", "153113.237500", "153115.245000", "153117.255000", "153119.262500", "153121.270000", "153123.277500", "153125.285000", "153127.295000", "153129.302500", "153131.310000", "153133.317500", "153135.327500", "153137.335000", "153139.342500", "153141.350000", "153143.357500", "153145.367500", "153147.375000", "153149.382500", "153151.390000", "153153.397500", "153155.407500", "153157.415000", "153159.422500", "153201.430000", "153203.440000", "153205.447500", "153207.455000", "153209.462500", "153211.470000", "153213.480000", "153215.487500", "153217.495000", "153219.502500", "153221.510000", "153223.520000", "153225.527500", "153227.535000", "153229.542500", "153231.550000", "153233.560000", "153235.567500", "153237.575000", "153239.582500", "153241.592500", "153243.600000", "153245.607500", "153247.615000", "153249.622500", "153251.632500", "153253.640000", "153255.647500", "153257.655000", "153259.662500", "153301.672500", "153303.680000", "153305.687500", "153307.695000", "153309.705000", "153311.712500", "153313.720000", "153315.727500", "153317.735000", "153319.745000", "153321.752500", "153323.760000", "153325.767500", "153327.775000", "153329.785000", "153331.792500", "153333.800000", "153335.807500", "153337.817500", "153339.825000", "153341.832500", "153343.840000", "153345.847500", "153347.857500", "153349.865000", "153351.872500", "153353.880000", "153355.887500", "153357.897500", "153359.905000", "153401.912500", "153403.920000", "153405.927500", "153407.937500", "153409.945000", "153411.952500", "153413.960000", "153415.970000", "153417.977500", "153419.985000", "153421.992500", "153424.000000"],
      "ContentTime": ["152905.234000", "152905.250000", "152905.250000", "152945.234000", "152945.250000", "152945.250000", "152945.250000", "152945.265000", "152945.265000", "152945.265000", "152945.265000", "152945.265000", "152945.265000", "152945.281000", "152945.281000", "152945.281000", "152945.281000", "152945.281000", "152945.281000", "152945.281000", "152945.296000", "152945.296000", "152945.296000", "153025.234000", "153025.234000", "153025.234000", "153025.234000", "153025.250000", "153025.250000", "153025.250000", "153025.250000", "153025.250000", "153025.265000", "153025.265000", "153025.265000", "153025.265000", "153025.265000", "153025.265000", "153025.281000", "153025.281000", "153025.281000", "153025.281000", "153025.281000", "153105.234000", "153105.234000", "153105.234000", "153105.234000", "153105.250000", "153105.250000", "153105.250000", "153105.250000", "153105.250000", "153105.250000", "153105.250000", "153105.265000", "153105.265000", "153105.265000", "153105.265000", "153105.281000", "153105.281000", "153105.281000", "153105.281000", "153105.281000", "153145.234000", "153145.234000", "153145.234000", "153145.234000", "153145.250000", "153145.250000", "153145.250000", "153145.250000", "153145.250000", "153145.250000", "153145.250000", "153145.250000", "153145.265000", "153145.265000", "153145.265000", "153145.265000", "153145.265000", "153145.265000", "153145.265000", "153145.265000", "153225.234000", "153225.234000", "153225.234000", "153225.250000", "153225.250000", "153225.250000", "153225.250000", "153225.250000", "153225.250000", "153225.250000", "153225.250000", "153225.265000", "153225.265000", "153225.265000", "153225.265000", "153225.265000", "153225.265000", "153225.265000", "153225.281000", "153225.281000", "153305.234000", "153305.234000", "153305.234000", "153305.234000", "153305.250000", "153305.250000", "153305.250000", "153305.250000", "153305.250000", "153305.250000", "153305.250000", "153305.250000", "153305.265000", "153305.265000", "153305.265000", "153305.265000", "153305.265000", "153305.265000", "153305.265000", "153305.281000", "153345.234000", "153345.234000", "153345.234000", "153345.250000", "153345.250000", "153345.250000", "153345.250000", "153345.250000", "153345.265000", "153345.265000", "153345.265000", "153345.265000", "153345.265000", "153345.265000", "153345.265000", "153345.265000", "153345.281000", "153345.281000", "153345.281000", "153345.281000", "153425.234000", "153425.234000", "153425.234000", "153425.234000", "153425.250000", "153425.250000", "153425.250000", "153425.250000", "153425.250000", "153425.265000", "153425.265000", "153425.265000", "153425.265000", "153425.265000", "153425.265000", "153425.265000", "153425.265000", "153425.281000", "153425.281000", "153425.281000", "153425.640000"],
      "InstanceCreationTime": ["152905.234000", "152905.250000", "152905.250000", "152945.234000", "152945.250000", "152945.250000", "152945.250000", "152945.265000", "152945.265000", "152945.265000", "152945.265000", "152945.265000", "152945.265000", "152945.281000", "152945.281000", "152945.281000", "152945.281000", "152945.281000", "152945.281000", "152945.281000", "152945.296000", "152945.296000", "152945.296000", "153025.234000", "153025.234000", "153025.234000", "153025.234000", "153025.250000", "153025.250000", "153025.250000", "153025.250000", "153025.250000", "153025.265000", "153025.265000", "153025.265000", "153025.265000", "153025.265000", "153025.265000", "153025.281000", "153025.281000", "153025.281000", "153025.281000", "153025.281000", "153105.234000", "153105.234000", "153105.234000", "153105.234000", "153105.250000", "153105.250000", "153105.250000", "153105.250000", "153105.250000", "153105.250000", "153105.250000", "153105.265000", "153105.265000", "153105.265000", "153105.265000", "153105.281000", "153105.281000", "153105.281000", "153105.281000", "153105.281000", "153145.234000", "153145.234000", "153145.234000", "153145.234000", "153145.250000", "153145.250000", "153145.250000", "153145.250000", "153145.250000", "153145.250000", "153145.250000", "153145.250000", "153145.265000", "153145.265000", "153145.265000", "153145.265000", "153145.265000", "153145.265000", "153145.265000", "153145.265000", "153225.234000", "153225.234000", "153225.234000", "153225.250000", "153225.250000", "153225.250000", "153225.250000", "153225.250000", "153225.250000", "153225.250000", "153225.250000", "153225.265000", "153225.265000", "153225.265000", "153225.265000", "153225.265000", "153225.265000", "153225.265000", "153225.281000", "153225.281000", "153305.234000", "153305.234000", "153305.234000", "153305.234000", "153305.250000", "153305.250000", "153305.250000", "153305.250000", "153305.250000", "153305.250000", "153305.250000", "153305.250000", "153305.265000", "153305.265000", "153305.265000", "153305.265000", "153305.265000", "153305.265000", "153305.265000", "153305.281000", "153345.234000", "153345.234000", "153345.234000", "153345.250000", "153345.250000", "153345.250000", "153345.250000", "153345.250000", "153345.265000", "153345.265000", "153345.265000", "153345.265000", "153345.265000", "153345.265000", "153345.265000", "153345.265000", "153345.281000", "153345.281000", "153345.281000", "153345.281000", "153425.234000", "153425.234000", "153425.234000", "153425.234000", "153425.250000", "153425.250000", "153425.250000", "153425.250000", "153425.250000", "153425.265000", "153425.265000", "153425.265000", "153425.265000", "153425.265000", "153425.265000", "153425.265000", "153425.265000", "153425.281000", "153425.281000", "153425.281000", "153425.640000"],
      "InstanceNumber": [1, 2, 3, 4, 5, 6, 7, 8, 9, 10, 11, 12, 13, 14, 15, 16, 17, 18, 19, 20, 21, 22, 23, 24, 25, 26, 27, 28, 29, 30, 31, 32, 33, 34, 35, 36, 37, 38, 39, 40, 41, 42, 43, 44, 45, 46, 47, 48, 49, 50, 51, 52, 53, 54, 55, 56, 57, 58, 59, 60, 61, 62, 63, 64, 65, 66, 67, 68, 69, 70, 71, 72, 73, 74, 75, 76, 77, 78, 79, 80, 81, 82, 83, 84, 85, 86, 87, 88, 89, 90, 91, 92, 93, 94, 95, 96, 97, 98, 99, 100, 101, 102, 103, 104, 105, 106, 107, 108, 109, 110, 111, 112, 113, 114, 115, 116, 117, 118, 119, 120, 121, 122, 123, 124, 125, 126, 127, 128, 129, 130, 131, 132, 133, 134, 135, 136, 137, 138, 139, 140, 141, 142, 143, 144, 145, 146, 147, 148, 149, 150, 151, 152, 153, 154, 155, 156, 157, 158, 159, 160, 161, 162, 163, 164],
      "LargestImagePixelValue": [2043, 1960, 1935, 1906, 1914, 2059, 1982, 1915, 1902, 1909, 2130, 1910, 1914, 1927, 1938, 1945, 1914, 1910, 2087, 1935, 1905, 1951, 1951, 1940, 1918, 2028, 1933, 1936, 1929, 1927, 1929, 1931, 1894, 1895, 1886, 1900, 1950, 1905, 1920, 1921, 1895, 1882, 1873, 1853, 2092, 1870, 1883, 1896, 1875, 1858, 1859, 1865, 1836, 2304, 1839, 2098, 2185, 1847, 1826, 1848, 1846, 1842, 1827, 1825, 1868, 1832, 2062, 1833, 1831, 1842, 1847, 1836, 1829, 1839, 1846, 1815, 1953, 1831, 1834, 1838, 2020, 1839, 1825, 1809, 1873, 1973, 1803, 1825, 1947, 1821, 1811, 1813, 1912, 1815, 1789, 1798, 1814, 1812, 1817, 1828, 1838, 1816, 1801, 1869, 1814, 2110, 1806, 1819, 1803, 1811, 1820, 1817, 1890, 1960, 1936, 2196, 1944, 1905, 1879, 1871, 1896, 2057, 1871, 1881, 1875, 1948, 1970, 1879, 1889, 2123, 1880, 1857, 1834, 1844, 1879, 1850, 1885, 1842, 1835, 1836, 1859, 1832, 1863, 1887, 1873, 1869, 1862, 2032, 1858, 1890, 1847, 1841, 1950, 1851, 1902, 1879, 1904, 1875, 2135, 1905, 1939, 1905, 1924, 1879],
      "WindowCenter": [756.0, 753.0, 754.0, 754.0, 754.0, 754.0, 753.0, 753.0, 753.0, 752.0, 753.0, 753.0, 753.0, 753.0, 753.0, 753.0, 753.0, 752.0, 753.0, 753.0, 753.0, 754.0, 754.0, 753.0, 753.0, 753.0, 753.0, 753.0, 754.0, 754.0, 754.0, 754.0, 754.0, 753.0, 753.0, 753.0, 753.0, 754.0, 754.0, 753.0, 754.0, 754.0, 753.0, 753.0, 754.0, 752.0, 752.0, 753.0, 752.0, 754.0, 754.0, 754.0, 753.0, 754.0, 752.0, 753.0, 753.0, 753.0, 753.0, 752.0, 754.0, 753.0, 752.0, 752.0, 753.0, 753.0, 755.0, 753.0, 754.0, 754.0, 754.0, 754.0, 754.0, 754.0, 754.0, 753.0, 754.0, 753.0, 753.0, 754.0, 755.0, 754.0, 754.0, 754.0, 753.0, 754.0, 753.0, 754.0, 754.0, 753.0, 753.0, 753.0, 753.0, 753.0, 752.0, 753.0, 753.0, 753.0, 754.0, 755.0, 755.0, 755.0, 755.0, 755.0, 753.0, 755.0, 753.0, 753.0, 755.0, 754.0, 755.0, 754.0, 755.0, 756.0, 755.0, 755.0, 754.0, 755.0, 755.0, 755.0, 755.0, 756.0, 756.0, 756.0, 755.0, 755.0, 754.0, 753.0, 754.0, 754.0, 753.0, 753.0, 753.0, 752.0, 753.0, 753.0, 754.0, 754.0, 754.0, 754.0, 754.0, 753.0, 754.0, 755.0, 754.0, 754.0, 754.0, 755.0, 754.0, 754.0, 755.0, 754.0, 755.0, 756.0, 755.0, 756.0, 756.0, 755.0, 756.0, 755.0, 756.0, 756.0, 755.0, 755.0],
      "WindowWidth": [1660.0, 1652.0, 1654.0, 1654.0, 1653.0, 1653.0, 1650.0, 1651.0, 1651.0, 1649.0, 1653.0, 1650.0, 1650.0, 1650.0, 1651.0, 1653.0, 1650.0, 1649.0, 1651.0, 1651.0, 1651.0, 1653.0, 1653.0, 1651.0, 1651.0, 1653.0, 1651.0, 1652.0, 1655.0, 1653.0, 1653.0, 1654.0, 1652.0, 1651.0, 1649.0, 1652.0, 1652.0, 1654.0, 1654.0, 1653.0, 1654.0, 1653.0, 1652.0, 1651.0, 1654.0, 1648.0, 1648.0, 1650.0, 1649.0, 1653.0, 1653.0, 1654.0, 1652.0, 1655.0, 1648.0, 1651.0, 1652.0, 1650.0, 1651.0, 1649.0, 1653.0, 1652.0, 1648.0, 1649.0, 1649.0, 1650.0, 1656.0, 1651.0, 1653.0, 1653.0, 1653.0, 1654.0, 1653.0, 1653.0, 1654.0, 1649.0, 1654.0, 1650.0, 1651.0, 1653.0, 1656.0, 1653.0, 1653.0, 1652.0, 1651.0, 1652.0, 1651.0, 1652.0, 1654.0, 1650.0, 1650.0, 1649.0, 1651.0, 1649.0, 1648.0, 1649.0, 1650.0, 1651.0, 1654.0, 1656.0, 1656.0, 1656.0, 1655.0, 1656.0, 1651.0, 1656.0, 1652.0, 1652.0, 1655.0, 1655.0, 1655.0, 1653.0, 1657.0, 1659.0, 1655.0, 1658.0, 1654.0, 1656.0, 1656.0, 1658.0, 1658.0, 1659.0, 1659.0, 1659.0, 1657.0, 1656.0, 1652.0, 1651.0, 1653.0, 1654.0, 1651.0, 1650.0, 1651.0, 1648.0, 1651.0, 1651.0, 1653.0, 1654.0, 1654.0, 1653.0, 1653.0, 1651.0, 1653.0, 1656.0, 1654.0, 1653.0, 1652.0, 1655.0, 1654.0, 1655.0, 1655.0, 1654.0, 1657.0, 1659.0, 1658.0, 1659.0, 1659.0, 1658.0, 1659.0, 1655.0, 1659.0, 1658.0, 1656.0, 1655.0]
    },
    "slices": {}
  }
}