{
  "AcquisitionMatrixPE": 64,
  "AcquisitionNumber": 1,
  "AcquisitionTime": "09:44:32.257500",
  "BandwidthPerPixelPhaseEncode": 33.967,
  "BaseResolution": 64,
  "CoilCombinationMethod": "Sum of Squares",
  "CoilString": "C:HEA;HEP",
  "ConversionSoftware": "dcm2niix",
  "ConversionSoftwareVersion": "v1.0.20220720",
  "DerivedVendorReportedEchoSpacing": 0.000460005,
  "DeviceSerialNumber": "35193",
  "DwellTime": 3.1e-06,
  "EchoTime": 0.03,
  "EffectiveEchoSpacing": 0.000460005,
  "FlipAngle": 90,
  "HeudiconvVersion": "1.1.6",
  "ImageOrientationPatientDICOM": [0.999391, 0.0209424, -0.0279155, -0.0209342, 0.999781, 0.000584746],
  "ImageOrientationText": "Tra>Sag(-1.6)",
  "ImageType": [
    "ORIGINAL",
    "PRIMARY",
    "M",
    "ND",
    "MOSAIC"
],
  "ImagingFrequency": 123.254,
  "InPlanePhaseEncodingDirectionDICOM": "COL",
  "InstitutionAddress": "Xinjiekouwai Street No 19,Beijing,Haidian District,CN,100875",
  "InstitutionName": "Beijing Normal Universtiy/4C3F54/",
  "InstitutionalDepartmentName": "Department",
  "MRAcquisitionType": "2D",
  "MagneticFieldStrength": 3,
  "Manufacturer": "Siemens",
  "ManufacturersModelName": "TrioTim",
  "MatrixCoilMode": "SENSE",
  "Modality": "MR",
  "NonlinearGradientCorrection": false,
  "PartialFourier": 1,
  "PatientPosition": "HFS",
  "PercentPhaseFOV": 100,
  "PercentSampling": 100,
  "PhaseEncodingDirection": "j-",
  "PhaseEncodingSteps": 64,
  "PhaseResolution": 1,
  "PixelBandwidth": 2520,
  "ProcedureStepDescription": "BNU_cst_2015^Guo.TaoMei",
  "ProtocolName": "ge_func_3x3x4_164",
  "PulseSequenceDetails": "%SiemensSeq%\\ep2d_bold",
  "ReceiveCoilName": "HeadMatrix",
  "ReconMatrixPE": 64,
  "RepetitionTime": 2,
  "SAR": 0.110194,
  "ScanOptions": "FS",
  "ScanningSequence": "EP",
  "SequenceName": "*epfid2d1_64",
  "SequenceVariant": "SK",
  "SeriesDescription": "ge_func_3x3x4_164",
  "SeriesNumber": 3,
  "ShimSetting": [-4500, -19261, -9898, 1034, -64, -826, 52, -116],
  "SliceThickness": 4,
  "SliceTiming": [0, 1.035, 0.06, 1.095, 0.1225, 1.155, 0.1825, 1.2175, 0.2425, 1.2775, 0.305, 1.3375, 0.365, 1.4, 0.425, 1.46, 0.4875, 1.52, 0.5475, 1.5825, 0.6075, 1.6425, 0.67, 1.7025, 0.73, 1.765, 0.79, 1.825, 0.8525, 1.885, 0.9125, 1.9475, 0.9725],
  "SoftwareVersions": "syngo MR B17",
  "SpacingBetweenSlices": 4.6,
  "StationName": "MRC35193",
  "TaskName": "CognitiveControl",
  "TotalReadoutTime": 0.0289803,
  "TxRefAmp": 348.955,
  "dcmmeta_affine": [
    [-3.123096466064453, -0.06541948020458221, -0.1284395307302475, 110.09441375732422],
    [-0.06544499099254608, 3.124314546585083, -4.5354778266393225e-10, -89.36192321777344],
    [-0.08723598718643188, -0.0018273311434313655, 4.598206520080566, -82.19298553466797],
    [0.0, 0.0, 0.0, 1.0]
],
  "dcmmeta_reorient_transform": [
    [0.0, -1.0, 0.0, 63.0],
    [1.0, 0.0, 0.0, 0.0],
    [0.0, 0.0, 1.0, 0.0],
    [0.0, 0.0, 0.0, 1.0]
],
  "dcmmeta_shape": [64, 64, 33, 164],
  "dcmmeta_slice_dim": 2,
  "dcmmeta_version": 0.6,
  "global": {
    "const": {
      "AcquisitionMatrix": [64, 0, 0, 64],
      "AngioFlag": "N",
      "BitsAllocated": 16,
      "BitsStored": 12,
      "Columns": 384,
      "EchoNumbers": 1,
      "EchoTime": 30.0,
      "EchoTrainLength": 1,
      "FlipAngle": 90.0,
      "HighBit": 11,
      "ImageOrientationPatient": [0.99939088448982, 0.02094239760886, -0.0279155150598, -0.0209342324858, 0.99978068394143, 0.00058474596146],
      "ImagePositionPatient": [-595.20131339939, -617.83143909054, -68.642722012682],
      "ImageType": [
        "ORIGINAL",
        "PRIMARY",
        "M",
        "ND",
        "MOSAIC"
],
      "ImagedNucleus": "1H",
      "ImagingFrequency": 123.253658,
      "InPlanePhaseEncodingDirection": "COL",
      "MRAcquisitionType": "2D",
      "MagneticFieldStrength": 3.0,
      "Manufacturer": "SIEMENS",
      "ManufacturerModelName": "TrioTim",
      "Modality": "MR",
      "NumberOfAverages": 1.0,
      "NumberOfPhaseEncodingSteps": 64,
      "PercentPhaseFieldOfView": 100.0,
      "PercentSampling": 100.0,
      "PerformedProcedureStepStartTime": "093557.093000",
      "PhotometricInterpretation": "MONOCHROME2",
      "PixelBandwidth": 2520.0,
      "PixelRepresentation": 0,
      "PixelSpacing": [3.125, 3.125],
      "ProtocolName": "ge_func_3x3x4_164",
      "RepetitionTime": 2000.0,
      "Rows": 384,
      "SAR": 0.11019414831377,
      "SamplesPerPixel": 1,
      "ScanOptions": "FS",
      "ScanningSequence": "EP",
      "SequenceName": "*epfid2d1_64",
      "SequenceVariant": "SK",
      "SeriesDescription": "ge_func_3x3x4_164",
      "SeriesNumber": 3,
      "SeriesTime": "094515.921000",
      "SliceLocation": -85.234955347987,
      "SliceThickness": 4.0,
      "SmallestImagePixelValue": 0,
      "SoftwareVersions": "syngo MR B17",
      "SpacingBetweenSlices": 4.599999991108,
      "SpecificCharacterSet": "ISO_IR 100",
      "StudyID": "1",
      "StudyTime": "093557.046000",
      "TransmitCoilName": "Body",
      "VariableFlipAngleFlag": "N",
      "WindowCenterWidthExplanation": "Algo1",
      "dBdt": 0.0},
    "slices": {}
  },
  "time": {
    "samples": {
      "AcquisitionNumber": [1, 2, 3, 4, 5, 6, 7, 8, 9, 10, 11, 12, 13, 14, 15, 16, 17, 18, 19, 20, 21, 22, 23, 24, 25, 26, 27, 28, 29, 30, 31, 32, 33, 34, 35, 36, 37, 38, 39, 40, 41, 42, 43, 44, 45, 46, 47, 48, 49, 50, 51, 52, 53, 54, 55, 56, 57, 58, 59, 60, 61, 62, 63, 64, 65, 66, 67, 68, 69, 70, 71, 72, 73, 74, 75, 76, 77, 78, 79, 80, 81, 82, 83, 84, 85, 86, 87, 88, 89, 90, 91, 92, 93, 94, 95, 96, 97, 98, 99, 100, 101, 102, 103, 104, 105, 106, 107, 108, 109, 110, 111, 112, 113, 114, 115, 116, 117, 118, 119, 120, 121, 122, 123, 124, 125, 126, 127, 128, 129, 130, 131, 132, 133, 134, 135, 136, 137, 138, 139, 140, 141, 142, 143, 144, 145, 146, 147, 148, 149, 150, 151, 152, 153, 154, 155, 156, 157, 158, 159, 160, 161, 162, 163, 164],
      "AcquisitionTime": ["094432.257500", "094434.265000", "094436.272500", "094438.282500", "094440.290000", "094442.297500", "094444.305000", "094446.312500", "094448.322500", "094450.330000", "094452.337500", "094454.345000", "094456.352500", "094458.362500", "094500.370000", "094502.377500", "094504.385000", "094506.395000", "094508.402500", "094510.410000", "094512.417500", "094514.425000", "094516.435000", "094518.442500", "094520.450000", "094522.457500", "094524.465000", "094526.475000", "094528.482500", "094530.490000", "094532.497500", "094534.507500", "094536.515000", "094538.522500", "094540.530000", "094542.537500", "094544.547500", "094546.555000", "094548.562500", "094550.570000", "094552.577500", "094554.587500", "094556.595000", "094558.602500", "094600.610000", "094602.620000", "094604.627500", "094606.635000", "094608.642500", "094610.650000", "094612.660000", "094614.667500", "094616.675000", "094618.682500", "094620.690000", "094622.700000", "094624.707500", "094626.715000", "094628.722500", "094630.730000", "094632.740000", "094634.747500", "094636.755000", "094638.762500", "094640.772500", "094642.780000", "094644.787500", "094646.795000", "094648.802500", "094650.812500", "094652.820000", "094654.827500", "094656.835000", "094658.842500", "094700.852500", "094702.860000", "094704.867500", "094706.875000", "094708.885000", "094710.892500", "094712.900000", "094714.907500", "094716.915000", "094718.925000", "094720.932500", "094722.940000", "094724.947500", "094726.955000", "094728.965000", "094730.972500", "094732.980000", "094734.987500", "094736.997500", "094739.005000", "094741.012500", "094743.020000", "094745.027500", "094747.037500", "094749.045000", "094751.052500", "094753.060000", "094755.067500", "094757.077500", "094759.085000", "094801.092500", "094803.100000", "094805.107500", "094807.117500", "094809.125000", "094811.132500", "094813.140000", "094815.150000", "094817.157500", "094819.165000", "094821.172500", "094823.180000", "094825.190000", "094827.197500", "094829.205000", "094831.212500", "094833.220000", "094835.230000", "094837.237500", "094839.245000", "094841.252500", "094843.262500", "094845.270000", "094847.277500", "094849.285000", "094851.292500", "094853.302500", "094855.310000", "094857.317500", "094859.325000", "094901.332500", "094903.342500", "094905.350000", "094907.357500", "094909.365000", "094911.375000", "094913.382500", "094915.390000", "094917.397500", "094919.405000", "094921.415000", "094923.422500", "094925.430000", "094927.437500", "094929.445000", "094931.455000", "094933.462500", "094935.470000", "094937.477500", "094939.485000", "094941.495000", "094943.502500", "094945.510000", "094947.517500", "094949.527500", "094951.535000", "094953.542500", "094955.550000", "094957.557500", "094959.567500"],
      "ContentTime": ["094515.921000", "094515.921000", "094515.921000", "094515.937000", "094515.937000", "094515.937000", "094515.953000", "094515.953000", "094515.953000", "094515.953000", "094515.953000", "094515.953000", "094515.953000", "094515.953000", "094515.968000", "094515.968000", "094515.968000", "094515.968000", "094515.968000", "094515.984000", "094515.984000", "094555.921000", "094555.921000", "094555.937000", "094555.937000", "094555.937000", "094555.937000", "094555.937000", "094555.937000", "094555.937000", "094555.953000", "094555.953000", "094555.953000", "094555.953000", "094555.953000", "094555.953000", "094555.968000", "094555.968000", "094555.968000", "094555.968000", "094555.968000", "094635.921000", "094635.921000", "094635.921000", "094635.921000", "094635.921000", "094635.921000", "094635.921000", "094635.921000", "094635.937000", "094635.937000", "094635.937000", "094635.937000", "094635.937000", "094635.937000", "094635.937000", "094635.937000", "094635.953000", "094635.953000", "094635.953000", "094635.953000", "094715.921000", "094715.921000", "094715.921000", "094715.921000", "094715.921000", "094715.937000", "094715.937000", "094715.937000", "094715.937000", "094715.937000", "094715.937000", "094715.937000", "094715.953000", "094715.953000", "094715.968000", "094715.968000", "094715.968000", "094715.968000", "094715.968000", "094715.968000", "094755.921000", "094755.921000", "094755.921000", "094755.921000", "094755.921000", "094755.937000", "094755.937000", "094755.937000", "094755.937000", "094755.937000", "094755.953000", "094755.953000", "094755.953000", "094755.953000", "094755.953000", "094755.953000", "094755.968000", "094755.968000", "094755.968000", "094755.968000", "094835.921000", "094835.921000", "094835.921000", "094835.921000", "094835.921000", "094835.921000", "094835.921000", "094835.937000", "094835.937000", "094835.937000", "094835.937000", "094835.953000", "094835.953000", "094835.953000", "094835.953000", "094835.953000", "094835.953000", "094835.953000", "094835.953000", "094835.968000", "094915.921000", "094915.921000", "094915.921000", "094915.921000", "094915.921000", "094915.921000", "094915.921000", "094915.937000", "094915.937000", "094915.937000", "094915.937000", "094915.937000", "094915.937000", "094915.953000", "094915.953000", "094915.953000", "094915.953000", "094915.953000", "094915.953000", "094915.953000", "094955.921000", "094955.921000", "094955.921000", "094955.921000", "094955.921000", "094955.921000", "094955.921000", "094955.937000", "094955.937000", "094955.937000", "094955.937000", "094955.937000", "094955.937000", "094955.937000", "094955.937000", "094955.953000", "094955.953000", "094955.953000", "094955.953000", "094955.953000", "095000.406000", "095000.406000", "095000.406000"],
      "InstanceCreationTime": ["094515.921000", "094515.921000", "094515.921000", "094515.937000", "094515.937000", "094515.937000", "094515.953000", "094515.953000", "094515.953000", "094515.953000", "094515.953000", "094515.953000", "094515.953000", "094515.953000", "094515.968000", "094515.968000", "094515.968000", "094515.968000", "094515.968000", "094515.984000", "094515.984000", "094555.921000", "094555.921000", "094555.937000", "094555.937000", "094555.937000", "094555.937000", "094555.937000", "094555.937000", "094555.937000", "094555.953000", "094555.953000", "094555.953000", "094555.953000", "094555.953000", "094555.953000", "094555.968000", "094555.968000", "094555.968000", "094555.968000", "094555.968000", "094635.921000", "094635.921000", "094635.921000", "094635.921000", "094635.921000", "094635.921000", "094635.921000", "094635.921000", "094635.937000", "094635.937000", "094635.937000", "094635.937000", "094635.937000", "094635.937000", "094635.937000", "094635.937000", "094635.953000", "094635.953000", "094635.953000", "094635.953000", "094715.921000", "094715.921000", "094715.921000", "094715.921000", "094715.921000", "094715.937000", "094715.937000", "094715.937000", "094715.937000", "094715.937000", "094715.937000", "094715.937000", "094715.953000", "094715.953000", "094715.968000", "094715.968000", "094715.968000", "094715.968000", "094715.968000", "094715.968000", "094755.921000", "094755.921000", "094755.921000", "094755.921000", "094755.921000", "094755.937000", "094755.937000", "094755.937000", "094755.937000", "094755.937000", "094755.953000", "094755.953000", "094755.953000", "094755.953000", "094755.953000", "094755.953000", "094755.968000", "094755.968000", "094755.968000", "094755.968000", "094835.921000", "094835.921000", "094835.921000", "094835.921000", "094835.921000", "094835.921000", "094835.921000", "094835.937000", "094835.937000", "094835.937000", "094835.937000", "094835.953000", "094835.953000", "094835.953000", "094835.953000", "094835.953000", "094835.953000", "094835.953000", "094835.953000", "094835.968000", "094915.921000", "094915.921000", "094915.921000", "094915.921000", "094915.921000", "094915.921000", "094915.921000", "094915.937000", "094915.937000", "094915.937000", "094915.937000", "094915.937000", "094915.937000", "094915.953000", "094915.953000", "094915.953000", "094915.953000", "094915.953000", "094915.953000", "094915.953000", "094955.921000", "094955.921000", "094955.921000", "094955.921000", "094955.921000", "094955.921000", "094955.921000", "094955.937000", "094955.937000", "094955.937000", "094955.937000", "094955.937000", "094955.937000", "094955.937000", "094955.937000", "094955.953000", "094955.953000", "094955.953000", "094955.953000", "094955.953000", "095000.406000", "095000.406000", "095000.406000"],
      "InstanceNumber": [1, 2, 3, 4, 5, 6, 7, 8, 9, 10, 11, 12, 13, 14, 15, 16, 17, 18, 19, 20, 21, 22, 23, 24, 25, 26, 27, 28, 29, 30, 31, 32, 33, 34, 35, 36, 37, 38, 39, 40, 41, 42, 43, 44, 45, 46, 47, 48, 49, 50, 51, 52, 53, 54, 55, 56, 57, 58, 59, 60, 61, 62, 63, 64, 65, 66, 67, 68, 69, 70, 71, 72, 73, 74, 75, 76, 77, 78, 79, 80, 81, 82, 83, 84, 85, 86, 87, 88, 89, 90, 91, 92, 93, 94, 95, 96, 97, 98, 99, 100, 101, 102, 103, 104, 105, 106, 107, 108, 109, 110, 111, 112, 113, 114, 115, 116, 117, 118, 119, 120, 121, 122, 123, 124, 125, 126, 127, 128, 129, 130, 131, 132, 133, 134, 135, 136, 137, 138, 139, 140, 141, 142, 143, 144, 145, 146, 147, 148, 149, 150, 151, 152, 153, 154, 155, 156, 157, 158, 159, 160, 161, 162, 163, 164],
      "LargestImagePixelValue": [2048, 1948, 1930, 1929, 1913, 1923, 1897, 1934, 1920, 1918, 1947, 1937, 1922, 1922, 1944, 1942, 1954, 1923, 1958, 1951, 1952, 1943, 1942, 1948, 1962, 1939, 1947, 1972, 1962, 1964, 1968, 1960, 1958, 1953, 1938, 1944, 1940, 1990, 1945, 1946, 1946, 1955, 1944, 1946, 1954, 1950, 1955, 1957, 1946, 1966, 1961, 1959, 1960, 1957, 1971, 1955, 1968, 1978, 1950, 1928, 1943, 1946, 1933, 1952, 1957, 1941, 1955, 1951, 1965, 1955, 1957, 1951, 1966, 1963, 1956, 1959, 1970, 1968, 1954, 1964, 1970, 1951, 1945, 1965, 1971, 1953, 1956, 1980, 1969, 1950, 1949, 1962, 1982, 1948, 1937, 1973, 1954, 1946, 1948, 1968, 1968, 1964, 1982, 1963, 1970, 1988, 1956, 1962, 1964, 1960, 1974, 1963, 1976, 1984, 1960, 1934, 1953, 1961, 1955, 1934, 1961, 1927, 1941, 1937, 1942, 1938, 1940, 1928, 1956, 1945, 1945, 1944, 1952, 1947, 1965, 1953, 1970, 1983, 1952, 1955, 1972, 1956, 1950, 1962, 1946, 1953, 1964, 1961, 1965, 1962, 1963, 1968, 1976, 1958, 1950, 1944, 1944, 1979, 1944, 1979, 1985, 1962, 1958, 1962],
      "WindowCenter": [731.0, 729.0, 729.0, 729.0, 729.0, 727.0, 727.0, 727.0, 726.0, 726.0, 728.0, 729.0, 728.0, 727.0, 727.0, 727.0, 726.0, 725.0, 726.0, 728.0, 727.0, 727.0, 727.0, 727.0, 728.0, 728.0, 727.0, 727.0, 727.0, 727.0, 727.0, 727.0, 727.0, 728.0, 728.0, 727.0, 727.0, 728.0, 728.0, 727.0, 727.0, 727.0, 728.0, 727.0, 727.0, 727.0, 727.0, 728.0, 728.0, 728.0, 728.0, 728.0, 728.0, 727.0, 727.0, 728.0, 729.0, 728.0, 728.0, 727.0, 726.0, 727.0, 728.0, 728.0, 728.0, 727.0, 727.0, 728.0, 728.0, 727.0, 728.0, 729.0, 729.0, 729.0, 729.0, 730.0, 730.0, 729.0, 729.0, 728.0, 729.0, 730.0, 729.0, 729.0, 729.0, 729.0, 729.0, 729.0, 729.0, 729.0, 729.0, 730.0, 731.0, 730.0, 729.0, 729.0, 729.0, 729.0, 728.0, 727.0, 727.0, 728.0, 729.0, 729.0, 729.0, 728.0, 728.0, 728.0, 729.0, 729.0, 728.0, 728.0, 730.0, 730.0, 730.0, 729.0, 728.0, 728.0, 730.0, 730.0, 729.0, 729.0, 729.0, 729.0, 729.0, 729.0, 728.0, 729.0, 730.0, 731.0, 729.0, 728.0, 728.0, 728.0, 728.0, 727.0, 727.0, 728.0, 729.0, 729.0, 729.0, 729.0, 730.0, 731.0, 730.0, 730.0, 729.0, 730.0, 731.0, 730.0, 729.0, 729.0, 729.0, 729.0, 729.0, 730.0, 731.0, 731.0, 730.0, 729.0, 729.0, 729.0, 730.0, 730.0],
      "WindowWidth": [1594.0, 1586.0, 1588.0, 1588.0, 1586.0, 1582.0, 1580.0, 1581.0, 1579.0, 1580.0, 1585.0, 1586.0, 1583.0, 1581.0, 1580.0, 1580.0, 1579.0, 1576.0, 1579.0, 1583.0, 1581.0, 1580.0, 1580.0, 1581.0, 1583.0, 1584.0, 1582.0, 1581.0, 1581.0, 1580.0, 1580.0, 1581.0, 1582.0, 1584.0, 1583.0, 1582.0, 1582.0, 1583.0, 1583.0, 1582.0, 1582.0, 1582.0, 1582.0, 1580.0, 1582.0, 1580.0, 1582.0, 1584.0, 1583.0, 1583.0, 1583.0, 1584.0, 1583.0, 1580.0, 1581.0, 1585.0, 1586.0, 1585.0, 1583.0, 1581.0, 1579.0, 1581.0, 1585.0, 1585.0, 1583.0, 1581.0, 1582.0, 1582.0, 1583.0, 1582.0, 1583.0, 1586.0, 1587.0, 1586.0, 1587.0, 1589.0, 1590.0, 1588.0, 1586.0, 1585.0, 1588.0, 1589.0, 1587.0, 1585.0, 1587.0, 1586.0, 1588.0, 1588.0, 1588.0, 1587.0, 1587.0, 1591.0, 1592.0, 1588.0, 1586.0, 1586.0, 1587.0, 1586.0, 1582.0, 1580.0, 1581.0, 1583.0, 1587.0, 1587.0, 1585.0, 1583.0, 1583.0, 1585.0, 1587.0, 1586.0, 1585.0, 1584.0, 1588.0, 1590.0, 1590.0, 1586.0, 1583.0, 1585.0, 1589.0, 1589.0, 1588.0, 1586.0, 1587.0, 1587.0, 1587.0, 1586.0, 1584.0, 1586.0, 1590.0, 1592.0, 1588.0, 1584.0, 1583.0, 1584.0, 1584.0, 1582.0, 1580.0, 1583.0, 1587.0, 1588.0, 1586.0, 1586.0, 1589.0, 1591.0, 1591.0, 1588.0, 1587.0, 1590.0, 1591.0, 1589.0, 1587.0, 1587.0, 1588.0, 1588.0, 1587.0, 1591.0, 1594.0, 1592.0, 1589.0, 1587.0, 1587.0, 1588.0, 1591.0, 1590.0]
    },
    "slices": {}
  }
}