{
  "AcquisitionMatrixPE": 64,
  "AcquisitionNumber": 1,
  "AcquisitionTime": "09:38:10.877500",
  "BandwidthPerPixelPhaseEncode": 33.967,
  "BaseResolution": 64,
  "CoilCombinationMethod": "Sum of Squares",
  "CoilString": "C:HEA;HEP",
  "ConversionSoftware": "dcm2niix",
  "ConversionSoftwareVersion": "v1.0.20220720",
  "DerivedVendorReportedEchoSpacing": 0.000460005,
  "DeviceSerialNumber": "35193",
  "DwellTime": 3.1e-06,
  "EchoTime": 0.03,
  "EffectiveEchoSpacing": 0.000460005,
  "FlipAngle": 90,
  "HeudiconvVersion": "1.1.6",
  "ImageOrientationPatientDICOM": [0.999391, 0.0209424, -0.0279155, -0.0209342, 0.999781, 0.000584746],
  "ImageOrientationText": "Tra>Sag(-1.6)",
  "ImageType": [
    "ORIGINAL",
    "PRIMARY",
    "M",
    "ND",
    "MOSAIC"
],
  "ImagingFrequency": 123.254,
  "InPlanePhaseEncodingDirectionDICOM": "COL",
  "InstitutionAddress": "Xinjiekouwai Street No 19,Beijing,Haidian District,CN,100875",
  "InstitutionName": "Beijing Normal Universtiy/4C3F54/",
  "InstitutionalDepartmentName": "Department",
  "MRAcquisitionType": "2D",
  "MagneticFieldStrength": 3,
  "Manufacturer": "Siemens",
  "ManufacturersModelName": "TrioTim",
  "MatrixCoilMode": "SENSE",
  "Modality": "MR",
  "NonlinearGradientCorrection": false,
  "PartialFourier": 1,
  "PatientPosition": "HFS",
  "PercentPhaseFOV": 100,
  "PercentSampling": 100,
  "PhaseEncodingDirection": "j-",
  "PhaseEncodingSteps": 64,
  "PhaseResolution": 1,
  "PixelBandwidth": 2520,
  "ProcedureStepDescription": "BNU_cst_2015^Guo.TaoMei",
  "ProtocolName": "ge_func_3x3x4_164",
  "PulseSequenceDetails": "%SiemensSeq%\\ep2d_bold",
  "ReceiveCoilName": "HeadMatrix",
  "ReconMatrixPE": 64,
  "RepetitionTime": 2,
  "SAR": 0.110194,
  "ScanOptions": "FS",
  "ScanningSequence": "EP",
  "SequenceName": "*epfid2d1_64",
  "SequenceVariant": "SK",
  "SeriesDescription": "ge_func_3x3x4_164",
  "SeriesNumber": 2,
  "ShimSetting": [-4500, -19261, -9898, 1034, -64, -826, 52, -116],
  "SliceThickness": 4,
  "SliceTiming": [0, 1.035, 0.06, 1.095, 0.1225, 1.155, 0.1825, 1.2175, 0.2425, 1.2775, 0.305, 1.3375, 0.365, 1.4, 0.425, 1.46, 0.4875, 1.52, 0.5475, 1.5825, 0.6075, 1.6425, 0.67, 1.7025, 0.73, 1.765, 0.79, 1.825, 0.8525, 1.885, 0.9125, 1.9475, 0.9725],
  "SoftwareVersions": "syngo MR B17",
  "SpacingBetweenSlices": 4.6,
  "StationName": "MRC35193",
  "TaskName": "CognitiveControl",
  "TotalReadoutTime": 0.0289803,
  "TxRefAmp": 348.955,
  "dcmmeta_affine": [
    [-3.123096466064453, -0.06541948020458221, -0.1284395307302475, 110.09441375732422],
    [-0.06544499099254608, 3.124314546585083, -4.5354778266393225e-10, -89.36192321777344],
    [-0.08723598718643188, -0.0018273311434313655, 4.598206520080566, -82.19298553466797],
    [0.0, 0.0, 0.0, 1.0]
],
  "dcmmeta_reorient_transform": [
    [0.0, -1.0, 0.0, 63.0],
    [1.0, 0.0, 0.0, 0.0],
    [0.0, 0.0, 1.0, 0.0],
    [0.0, 0.0, 0.0, 1.0]
],
  "dcmmeta_shape": [64, 64, 33, 164],
  "dcmmeta_slice_dim": 2,
  "dcmmeta_version": 0.6,
  "global": {
    "const": {
      "AcquisitionMatrix": [64, 0, 0, 64],
      "AngioFlag": "N",
      "BitsAllocated": 16,
      "BitsStored": 12,
      "Columns": 384,
      "EchoNumbers": 1,
      "EchoTime": 30.0,
      "EchoTrainLength": 1,
      "FlipAngle": 90.0,
      "HighBit": 11,
      "ImageOrientationPatient": [0.99939088448982, 0.02094239760886, -0.0279155150598, -0.0209342324858, 0.99978068394143, 0.00058474596146],
      "ImagePositionPatient": [-595.20131339939, -617.83143909054, -68.642722012682],
      "ImageType": [
        "ORIGINAL",
        "PRIMARY",
        "M",
        "ND",
        "MOSAIC"
],
      "ImagedNucleus": "1H",
      "ImagingFrequency": 123.253656,
      "InPlanePhaseEncodingDirection": "COL",
      "MRAcquisitionType": "2D",
      "MagneticFieldStrength": 3.0,
      "Manufacturer": "SIEMENS",
      "ManufacturerModelName": "TrioTim",
      "Modality": "MR",
      "NumberOfAverages": 1.0,
      "NumberOfPhaseEncodingSteps": 64,
      "PercentPhaseFieldOfView": 100.0,
      "PercentSampling": 100.0,
      "PerformedProcedureStepStartTime": "093557.093000",
      "PhotometricInterpretation": "MONOCHROME2",
      "PixelBandwidth": 2520.0,
      "PixelRepresentation": 0,
      "PixelSpacing": [3.125, 3.125],
      "ProtocolName": "ge_func_3x3x4_164",
      "RepetitionTime": 2000.0,
      "Rows": 384,
      "SAR": 0.11019414831377,
      "SamplesPerPixel": 1,
      "ScanOptions": "FS",
      "ScanningSequence": "EP",
      "SequenceName": "*epfid2d1_64",
      "SequenceVariant": "SK",
      "SeriesDescription": "ge_func_3x3x4_164",
      "SeriesNumber": 2,
      "SeriesTime": "093910.937000",
      "SliceLocation": -85.234955347987,
      "SliceThickness": 4.0,
      "SmallestImagePixelValue": 0,
      "SoftwareVersions": "syngo MR B17",
      "SpacingBetweenSlices": 4.599999991108,
      "SpecificCharacterSet": "ISO_IR 100",
      "StudyID": "1",
      "StudyTime": "093557.046000",
      "TransmitCoilName": "Body",
      "VariableFlipAngleFlag": "N",
      "WindowCenterWidthExplanation": "Algo1",
      "dBdt": 0.0},
    "slices": {}
  },
  "time": {
    "samples": {
      "AcquisitionNumber": [1, 2, 3, 4, 5, 6, 7, 8, 9, 10, 11, 12, 13, 14, 15, 16, 17, 18, 19, 20, 21, 22, 23, 24, 25, 26, 27, 28, 29, 30, 31, 32, 33, 34, 35, 36, 37, 38, 39, 40, 41, 42, 43, 44, 45, 46, 47, 48, 49, 50, 51, 52, 53, 54, 55, 56, 57, 58, 59, 60, 61, 62, 63, 64, 65, 66, 67, 68, 69, 70, 71, 72, 73, 74, 75, 76, 77, 78, 79, 80, 81, 82, 83, 84, 85, 86, 87, 88, 89, 90, 91, 92, 93, 94, 95, 96, 97, 98, 99, 100, 101, 102, 103, 104, 105, 106, 107, 108, 109, 110, 111, 112, 113, 114, 115, 116, 117, 118, 119, 120, 121, 122, 123, 124, 125, 126, 127, 128, 129, 130, 131, 132, 133, 134, 135, 136, 137, 138, 139, 140, 141, 142, 143, 144, 145, 146, 147, 148, 149, 150, 151, 152, 153, 154, 155, 156, 157, 158, 159, 160, 161, 162, 163, 164],
      "AcquisitionTime": ["093810.877500", "093812.885000", "093814.892500", "093816.900000", "093818.910000", "093820.917500", "093822.925000", "093824.932500", "093826.942500", "093828.950000", "093830.957500", "093832.965000", "093834.972500", "093836.982500", "093838.990000", "093840.997500", "093843.005000", "093845.012500", "093847.022500", "093849.030000", "093851.037500", "093853.045000", "093855.055000", "093857.062500", "093859.070000", "093901.077500", "093903.085000", "093905.095000", "093907.102500", "093909.110000", "093911.117500", "093913.125000", "093915.135000", "093917.142500", "093919.150000", "093921.157500", "093923.167500", "093925.175000", "093927.182500", "093929.190000", "093931.197500", "093933.207500", "093935.215000", "093937.222500", "093939.230000", "093941.237500", "093943.247500", "093945.255000", "093947.262500", "093949.270000", "093951.277500", "093953.287500", "093955.295000", "093957.302500", "093959.310000", "094001.320000", "094003.327500", "094005.335000", "094007.342500", "094009.350000", "094011.360000", "094013.367500", "094015.375000", "094017.382500", "094019.390000", "094021.400000", "094023.407500", "094025.415000", "094027.422500", "094029.432500", "094031.440000", "094033.447500", "094035.455000", "094037.462500", "094039.472500", "094041.480000", "094043.487500", "094045.495000", "094047.502500", "094049.512500", "094051.520000", "094053.527500", "094055.535000", "094057.545000", "094059.552500", "094101.560000", "094103.567500", "094105.575000", "094107.585000", "094109.592500", "094111.600000", "094113.607500", "094115.615000", "094117.625000", "094119.632500", "094121.640000", "094123.647500", "094125.657500", "094127.665000", "094129.672500", "094131.680000", "094133.687500", "094135.697500", "094137.705000", "094139.712500", "094141.720000", "094143.727500", "094145.737500", "094147.745000", "094149.752500", "094151.760000", "094153.767500", "094155.777500", "094157.785000", "094159.792500", "094201.800000", "094203.810000", "094205.817500", "094207.825000", "094209.832500", "094211.840000", "094213.850000", "094215.857500", "094217.865000", "094219.872500", "094221.880000", "094223.890000", "094225.897500", "094227.905000", "094229.912500", "094231.922500", "094233.930000", "094235.937500", "094237.945000", "094239.952500", "094241.962500", "094243.970000", "094245.977500", "094247.985000", "094249.992500", "094252.002500", "094254.010000", "094256.017500", "094258.025000", "094300.035000", "094302.042500", "094304.050000", "094306.057500", "094308.065000", "094310.075000", "094312.082500", "094314.090000", "094316.097500", "094318.105000", "094320.115000", "094322.122500", "094324.130000", "094326.137500", "094328.145000", "094330.155000", "094332.162500", "094334.170000", "094336.177500", "094338.187500"],
      "ContentTime": ["093910.937000", "093910.937000", "093910.937000", "093910.953000", "093910.953000", "093910.953000", "093910.953000", "093910.953000", "093910.953000", "093910.968000", "093910.968000", "093910.968000", "093910.968000", "093910.968000", "093910.968000", "093910.984000", "093910.984000", "093910.984000", "093910.984000", "093910.984000", "093910.984000", "093910.984000", "093911.000000", "093911.000000", "093911.000000", "093911.000000", "093911.000000", "093911.000000", "093911.015000", "093950.937000", "093950.937000", "093950.937000", "093950.937000", "093950.937000", "093950.937000", "093950.937000", "093950.953000", "093950.953000", "093950.953000", "093950.953000", "093950.953000", "093950.953000", "093950.953000", "093950.953000", "093950.968000", "093950.968000", "093950.968000", "093950.968000", "093950.968000", "094030.937000", "094030.937000", "094030.937000", "094030.937000", "094030.937000", "094030.937000", "094030.937000", "094030.953000", "094030.953000", "094030.953000", "094030.953000", "094030.953000", "094030.953000", "094030.968000", "094030.968000", "094030.968000", "094030.968000", "094030.968000", "094030.968000", "094030.968000", "094110.937000", "094110.937000", "094110.937000", "094110.937000", "094110.937000", "094110.953000", "094110.953000", "094110.953000", "094110.953000", "094110.953000", "094110.953000", "094110.953000", "094110.953000", "094110.968000", "094110.968000", "094110.968000", "094110.968000", "094110.968000", "094110.968000", "094110.968000", "094150.937000", "094150.937000", "094150.937000", "094150.937000", "094150.937000", "094150.937000", "094150.937000", "094150.953000", "094150.953000", "094150.953000", "094150.953000", "094150.953000", "094150.968000", "094150.968000", "094150.968000", "094150.968000", "094150.968000", "094150.968000", "094150.968000", "094150.968000", "094230.937000", "094230.937000", "094230.937000", "094230.953000", "094230.953000", "094230.953000", "094230.953000", "094230.953000", "094230.968000", "094230.968000", "094230.968000", "094230.968000", "094230.968000", "094230.968000", "094230.968000", "094230.968000", "094230.984000", "094230.984000", "094230.984000", "094230.984000", "094310.937000", "094310.937000", "094310.937000", "094310.937000", "094310.937000", "094310.937000", "094310.937000", "094310.953000", "094310.953000", "094310.953000", "094310.953000", "094310.953000", "094310.968000", "094310.968000", "094310.968000", "094310.968000", "094310.968000", "094310.968000", "094310.984000", "094310.984000", "094339.843000", "094339.843000", "094339.843000", "094339.843000", "094339.843000", "094339.843000", "094339.859000", "094339.859000", "094339.859000", "094339.859000", "094339.859000", "094339.859000", "094339.859000", "094339.875000", "094339.875000"],
      "InstanceCreationTime": ["093910.937000", "093910.937000", "093910.937000", "093910.953000", "093910.953000", "093910.953000", "093910.953000", "093910.953000", "093910.953000", "093910.968000", "093910.968000", "093910.968000", "093910.968000", "093910.968000", "093910.968000", "093910.984000", "093910.984000", "093910.984000", "093910.984000", "093910.984000", "093910.984000", "093910.984000", "093911.000000", "093911.000000", "093911.000000", "093911.000000", "093911.000000", "093911.000000", "093911.015000", "093950.937000", "093950.937000", "093950.937000", "093950.937000", "093950.937000", "093950.937000", "093950.937000", "093950.953000", "093950.953000", "093950.953000", "093950.953000", "093950.953000", "093950.953000", "093950.953000", "093950.953000", "093950.968000", "093950.968000", "093950.968000", "093950.968000", "093950.968000", "094030.937000", "094030.937000", "094030.937000", "094030.937000", "094030.937000", "094030.937000", "094030.937000", "094030.953000", "094030.953000", "094030.953000", "094030.953000", "094030.953000", "094030.953000", "094030.968000", "094030.968000", "094030.968000", "094030.968000", "094030.968000", "094030.968000", "094030.968000", "094110.937000", "094110.937000", "094110.937000", "094110.937000", "094110.937000", "094110.953000", "094110.953000", "094110.953000", "094110.953000", "094110.953000", "094110.953000", "094110.953000", "094110.953000", "094110.968000", "094110.968000", "094110.968000", "094110.968000", "094110.968000", "094110.968000", "094110.968000", "094150.937000", "094150.937000", "094150.937000", "094150.937000", "094150.937000", "094150.937000", "094150.937000", "094150.953000", "094150.953000", "094150.953000", "094150.953000", "094150.953000", "094150.968000", "094150.968000", "094150.968000", "094150.968000", "094150.968000", "094150.968000", "094150.968000", "094150.968000", "094230.937000", "094230.937000", "094230.937000", "094230.953000", "094230.953000", "094230.953000", "094230.953000", "094230.953000", "094230.968000", "094230.968000", "094230.968000", "094230.968000", "094230.968000", "094230.968000", "094230.968000", "094230.968000", "094230.984000", "094230.984000", "094230.984000", "094230.984000", "094310.937000", "094310.937000", "094310.937000", "094310.937000", "094310.937000", "094310.937000", "094310.937000", "094310.953000", "094310.953000", "094310.953000", "094310.953000", "094310.953000", "094310.968000", "094310.968000", "094310.968000", "094310.968000", "094310.968000", "094310.968000", "094310.984000", "094310.984000", "094339.843000", "094339.843000", "094339.843000", "094339.843000", "094339.843000", "094339.843000", "094339.859000", "094339.859000", "094339.859000", "094339.859000", "094339.859000", "094339.859000", "094339.859000", "094339.875000", "094339.875000"],
      "InstanceNumber": [1, 2, 3, 4, 5, 6, 7, 8, 9, 10, 11, 12, 13, 14, 15, 16, 17, 18, 19, 20, 21, 22, 23, 24, 25, 26, 27, 28, 29, 30, 31, 32, 33, 34, 35, 36, 37, 38, 39, 40, 41, 42, 43, 44, 45, 46, 47, 48, 49, 50, 51, 52, 53, 54, 55, 56, 57, 58, 59, 60, 61, 62, 63, 64, 65, 66, 67, 68, 69, 70, 71, 72, 73, 74, 75, 76, 77, 78, 79, 80, 81, 82, 83, 84, 85, 86, 87, 88, 89, 90, 91, 92, 93, 94, 95, 96, 97, 98, 99, 100, 101, 102, 103, 104, 105, 106, 107, 108, 109, 110, 111, 112, 113, 114, 115, 116, 117, 118, 119, 120, 121, 122, 123, 124, 125, 126, 127, 128, 129, 130, 131, 132, 133, 134, 135, 136, 137, 138, 139, 140, 141, 142, 143, 144, 145, 146, 147, 148, 149, 150, 151, 152, 153, 154, 155, 156, 157, 158, 159, 160, 161, 162, 163, 164],
      "LargestImagePixelValue": [1868, 1777, 1770, 1768, 1752, 1756, 1758, 1736, 1730, 1722, 1715, 1722, 1705, 1718, 1705, 1740, 1728, 1723, 1753, 1769, 1745, 1739, 1761, 1745, 1777, 1747, 1748, 1761, 1765, 1757, 1755, 1754, 1793, 1763, 1792, 1783, 1780, 1784, 1791, 1780, 1781, 1775, 1775, 1779, 1762, 1760, 1800, 1802, 1784, 1780, 1791, 1829, 1804, 1815, 1817, 1815, 1806, 1805, 1794, 1807, 1778, 1788, 1782, 1777, 1785, 1801, 1824, 1796, 1787, 1804, 1811, 1820, 1827, 1814, 1814, 1821, 1812, 1824, 1805, 1801, 1792, 1807, 1823, 1838, 1810, 1847, 1826, 1830, 1844, 1855, 1848, 1839, 1875, 1857, 1828, 1848, 1847, 1848, 1861, 1864, 1863, 1878, 1861, 1854, 1867, 1853, 1845, 1857, 1853, 1845, 1852, 1853, 1846, 1870, 1860, 1866, 1873, 1870, 1862, 1865, 1870, 1855, 1860, 1871, 1867, 1862, 1886, 1878, 1893, 1892, 1894, 1893, 1908, 1890, 1904, 1893, 1903, 1934, 1926, 1925, 1913, 1927, 1920, 1905, 1909, 1914, 1921, 1932, 1911, 1922, 1912, 1927, 1906, 1919, 1868, 1900, 1904, 1895, 1899, 1909, 1903, 1894, 1924, 1906],
      "WindowCenter": [730.0, 728.0, 730.0, 730.0, 728.0, 726.0, 725.0, 724.0, 723.0, 723.0, 723.0, 726.0, 726.0, 725.0, 725.0, 725.0, 726.0, 726.0, 727.0, 727.0, 727.0, 728.0, 729.0, 728.0, 727.0, 726.0, 726.0, 726.0, 727.0, 726.0, 726.0, 726.0, 727.0, 726.0, 726.0, 726.0, 727.0, 727.0, 726.0, 726.0, 726.0, 727.0, 727.0, 728.0, 727.0, 726.0, 727.0, 727.0, 726.0, 726.0, 726.0, 727.0, 727.0, 727.0, 726.0, 726.0, 726.0, 726.0, 726.0, 725.0, 726.0, 726.0, 725.0, 726.0, 726.0, 727.0, 726.0, 726.0, 726.0, 727.0, 728.0, 728.0, 727.0, 727.0, 727.0, 728.0, 728.0, 728.0, 727.0, 726.0, 727.0, 728.0, 727.0, 726.0, 726.0, 728.0, 730.0, 729.0, 727.0, 726.0, 726.0, 727.0, 727.0, 726.0, 726.0, 726.0, 726.0, 726.0, 726.0, 727.0, 728.0, 727.0, 726.0, 726.0, 727.0, 727.0, 727.0, 727.0, 728.0, 728.0, 728.0, 727.0, 728.0, 729.0, 728.0, 726.0, 726.0, 725.0, 725.0, 726.0, 726.0, 726.0, 727.0, 727.0, 727.0, 726.0, 727.0, 728.0, 727.0, 726.0, 725.0, 726.0, 727.0, 727.0, 727.0, 727.0, 727.0, 728.0, 729.0, 727.0, 726.0, 726.0, 728.0, 728.0, 727.0, 726.0, 728.0, 728.0, 727.0, 726.0, 726.0, 726.0, 727.0, 727.0, 726.0, 726.0, 727.0, 728.0, 729.0, 728.0, 727.0, 727.0, 729.0, 729.0],
      "WindowWidth": [1590.0, 1585.0, 1592.0, 1591.0, 1583.0, 1579.0, 1576.0, 1572.0, 1569.0, 1569.0, 1570.0, 1577.0, 1577.0, 1577.0, 1575.0, 1576.0, 1579.0, 1579.0, 1580.0, 1581.0, 1580.0, 1583.0, 1586.0, 1582.0, 1580.0, 1578.0, 1577.0, 1579.0, 1582.0, 1579.0, 1577.0, 1578.0, 1580.0, 1579.0, 1578.0, 1578.0, 1582.0, 1582.0, 1579.0, 1577.0, 1577.0, 1580.0, 1582.0, 1582.0, 1580.0, 1577.0, 1580.0, 1580.0, 1578.0, 1577.0, 1578.0, 1580.0, 1580.0, 1580.0, 1578.0, 1578.0, 1577.0, 1578.0, 1578.0, 1577.0, 1578.0, 1578.0, 1576.0, 1577.0, 1580.0, 1581.0, 1579.0, 1578.0, 1577.0, 1580.0, 1585.0, 1583.0, 1580.0, 1581.0, 1581.0, 1584.0, 1585.0, 1583.0, 1579.0, 1578.0, 1582.0, 1583.0, 1579.0, 1577.0, 1578.0, 1585.0, 1588.0, 1587.0, 1582.0, 1578.0, 1579.0, 1580.0, 1580.0, 1578.0, 1578.0, 1579.0, 1579.0, 1578.0, 1577.0, 1581.0, 1583.0, 1581.0, 1578.0, 1578.0, 1580.0, 1582.0, 1580.0, 1581.0, 1583.0, 1584.0, 1583.0, 1582.0, 1583.0, 1586.0, 1582.0, 1579.0, 1577.0, 1575.0, 1575.0, 1577.0, 1579.0, 1578.0, 1580.0, 1581.0, 1581.0, 1579.0, 1581.0, 1584.0, 1581.0, 1579.0, 1576.0, 1578.0, 1581.0, 1580.0, 1581.0, 1582.0, 1581.0, 1585.0, 1586.0, 1582.0, 1577.0, 1580.0, 1584.0, 1584.0, 1580.0, 1579.0, 1583.0, 1585.0, 1581.0, 1579.0, 1578.0, 1579.0, 1581.0, 1582.0, 1578.0, 1579.0, 1581.0, 1585.0, 1587.0, 1584.0, 1580.0, 1582.0, 1586.0, 1586.0]
    },
    "slices": {}
  }
}