{
  "AcquisitionMatrixPE": 64,
  "AcquisitionNumber": 1,
  "AcquisitionTime": "14:02:52.730000",
  "BandwidthPerPixelPhaseEncode": 33.967,
  "BaseResolution": 64,
  "CoilCombinationMethod": "Sum of Squares",
  "CoilString": "C:HEA;HEP",
  "ConversionSoftware": "dcm2niix",
  "ConversionSoftwareVersion": "v1.0.20220720",
  "DerivedVendorReportedEchoSpacing": 0.000460005,
  "DeviceSerialNumber": "35193",
  "DwellTime": 3.1e-06,
  "EchoTime": 0.03,
  "EffectiveEchoSpacing": 0.000460005,
  "FlipAngle": 90,
  "HeudiconvVersion": "1.1.6",
  "ImageOrientationPatientDICOM": [0.999109, -0.0209424, 0.0366357, 0.0209284, 0.999781, 0.000767409],
  "ImageOrientationText": "Tra>Sag(2.1)",
  "ImageType": [
    "ORIGINAL",
    "PRIMARY",
    "M",
    "ND",
    "MOSAIC"
],
  "ImagingFrequency": 123.254,
  "InPlanePhaseEncodingDirectionDICOM": "COL",
  "InstitutionAddress": "Xinjiekouwai Street No 19,Beijing,Haidian District,CN,100875",
  "InstitutionName": "Beijing Normal Universtiy/2773C4/",
  "InstitutionalDepartmentName": "Department",
  "MRAcquisitionType": "2D",
  "MagneticFieldStrength": 3,
  "Manufacturer": "Siemens",
  "ManufacturersModelName": "TrioTim",
  "MatrixCoilMode": "SENSE",
  "Modality": "MR",
  "NonlinearGradientCorrection": false,
  "PartialFourier": 1,
  "PatientPosition": "HFS",
  "PercentPhaseFOV": 100,
  "PercentSampling": 100,
  "PhaseEncodingDirection": "j-",
  "PhaseEncodingSteps": 64,
  "PhaseResolution": 1,
  "PixelBandwidth": 2520,
  "ProcedureStepDescription": "BNU_cst_2015^Guo.TaoMei",
  "ProtocolName": "ge_func_3x3x4_164",
  "PulseSequenceDetails": "%SiemensSeq%\\ep2d_bold",
  "ReceiveCoilName": "HeadMatrix",
  "ReconMatrixPE": 64,
  "RepetitionTime": 2,
  "SAR": 0.160676,
  "ScanOptions": "FS",
  "ScanningSequence": "EP",
  "SequenceName": "*epfid2d1_64",
  "SequenceVariant": "SK",
  "SeriesDescription": "ge_func_3x3x4_164",
  "SeriesNumber": 4,
  "ShimSetting": [-4478, -19516, -9815, 1273, -119, -574, -33, 1],
  "SliceThickness": 4,
  "SliceTiming": [0, 1.035, 0.06, 1.095, 0.1225, 1.155, 0.1825, 1.2175, 0.2425, 1.2775, 0.305, 1.3375, 0.365, 1.4, 0.425, 1.46, 0.4875, 1.52, 0.5475, 1.5825, 0.6075, 1.6425, 0.67, 1.7025, 0.73, 1.765, 0.79, 1.825, 0.8525, 1.885, 0.9125, 1.9475, 0.9725],
  "SoftwareVersions": "syngo MR B17",
  "SpacingBetweenSlices": 4.6,
  "StationName": "MRC35193",
  "TaskName": "LanguageControl",
  "TotalReadoutTime": 0.0289803,
  "TxRefAmp": 322.347,
  "dcmmeta_affine": [
    [-3.12221622467041, 0.06540117412805557, 0.16856105625629425, 95.18650817871094],
    [0.06544512510299683, 3.124314546585083, 3.2549738460119215e-09, -88.15281677246094],
    [0.11448647081851959, -0.0023981542326509953, 4.59691047668457, -63.64582061767578],
    [0.0, 0.0, 0.0, 1.0]
],
  "dcmmeta_reorient_transform": [
    [0.0, -1.0, 0.0, 63.0],
    [1.0, 0.0, 0.0, 0.0],
    [0.0, 0.0, 1.0, 0.0],
    [0.0, 0.0, 0.0, 1.0]
],
  "dcmmeta_shape": [64, 64, 33, 164],
  "dcmmeta_slice_dim": 2,
  "dcmmeta_version": 0.6,
  "global": {
    "const": {
      "AcquisitionMatrix": [64, 0, 0, 64],
      "AngioFlag": "N",
      "BitsAllocated": 16,
      "BitsStored": 12,
      "Columns": 384,
      "EchoNumbers": 1,
      "EchoTime": 30.0,
      "EchoTrainLength": 1,
      "FlipAngle": 90.0,
      "HighBit": 11,
      "ImageOrientationPatient": [0.9991092241627, -0.0209424397059, 0.0366356713079, 0.02092837460781, 0.99978068305962, 0.00076740935045],
      "ImagePositionPatient": [-609.3255823622, -598.09812633296, -82.498443243641],
      "ImageType": [
        "ORIGINAL",
        "PRIMARY",
        "M",
        "ND",
        "MOSAIC"
],
      "ImagedNucleus": "1H",
      "ImagingFrequency": 123.253669,
      "InPlanePhaseEncodingDirection": "COL",
      "MRAcquisitionType": "2D",
      "MagneticFieldStrength": 3.0,
      "Manufacturer": "SIEMENS",
      "ManufacturerModelName": "TrioTim",
      "Modality": "MR",
      "NumberOfAverages": 1.0,
      "NumberOfPhaseEncodingSteps": 64,
      "PercentPhaseFieldOfView": 100.0,
      "PercentSampling": 100.0,
      "PerformedProcedureStepStartTime": "134743.625000",
      "PhotometricInterpretation": "MONOCHROME2",
      "PixelBandwidth": 2520.0,
      "PixelRepresentation": 0,
      "PixelSpacing": [3.125, 3.125],
      "ProtocolName": "ge_func_3x3x4_164",
      "RepetitionTime": 2000.0,
      "Rows": 384,
      "SAR": 0.16067565936163,
      "SamplesPerPixel": 1,
      "ScanOptions": "FS",
      "ScanningSequence": "EP",
      "SequenceName": "*epfid2d1_64",
      "SequenceVariant": "SK",
      "SeriesDescription": "ge_func_3x3x4_164",
      "SeriesNumber": 4,
      "SeriesTime": "140352.328000",
      "SliceLocation": -60.115087693782,
      "SliceThickness": 4.0,
      "SmallestImagePixelValue": 0,
      "SoftwareVersions": "syngo MR B17",
      "SpacingBetweenSlices": 4.6000001035126,
      "SpecificCharacterSet": "ISO_IR 100",
      "StudyID": "1",
      "StudyTime": "134743.578000",
      "TransmitCoilName": "Body",
      "VariableFlipAngleFlag": "N",
      "WindowCenterWidthExplanation": "Algo1",
      "dBdt": 0.0},
    "slices": {}
  },
  "time": {
    "samples": {
      "AcquisitionNumber": [1, 2, 3, 4, 5, 6, 7, 8, 9, 10, 11, 12, 13, 14, 15, 16, 17, 18, 19, 20, 21, 22, 23, 24, 25, 26, 27, 28, 29, 30, 31, 32, 33, 34, 35, 36, 37, 38, 39, 40, 41, 42, 43, 44, 45, 46, 47, 48, 49, 50, 51, 52, 53, 54, 55, 56, 57, 58, 59, 60, 61, 62, 63, 64, 65, 66, 67, 68, 69, 70, 71, 72, 73, 74, 75, 76, 77, 78, 79, 80, 81, 82, 83, 84, 85, 86, 87, 88, 89, 90, 91, 92, 93, 94, 95, 96, 97, 98, 99, 100, 101, 102, 103, 104, 105, 106, 107, 108, 109, 110, 111, 112, 113, 114, 115, 116, 117, 118, 119, 120, 121, 122, 123, 124, 125, 126, 127, 128, 129, 130, 131, 132, 133, 134, 135, 136, 137, 138, 139, 140, 141, 142, 143, 144, 145, 146, 147, 148, 149, 150, 151, 152, 153, 154, 155, 156, 157, 158, 159, 160, 161, 162, 163, 164],
      "AcquisitionTime": ["140252.730000", "140254.737500", "140256.745000", "140258.755000", "140300.762500", "140302.770000", "140304.777500", "140306.785000", "140308.795000", "140310.802500", "140312.810000", "140314.817500", "140316.825000", "140318.835000", "140320.842500", "140322.850000", "140324.857500", "140326.867500", "140328.875000", "140330.882500", "140332.890000", "140334.897500", "140336.907500", "140338.915000", "140340.922500", "140342.930000", "140344.937500", "140346.947500", "140348.955000", "140350.962500", "140352.970000", "140354.977500", "140356.987500", "140358.995000", "140401.002500", "140403.010000", "140405.020000", "140407.027500", "140409.035000", "140411.042500", "140413.050000", "140415.060000", "140417.067500", "140419.075000", "140421.082500", "140423.090000", "140425.100000", "140427.107500", "140429.115000", "140431.122500", "140433.132500", "140435.140000", "140437.147500", "140439.155000", "140441.162500", "140443.172500", "140445.180000", "140447.187500", "140449.195000", "140451.202500", "140453.212500", "140455.220000", "140457.227500", "140459.235000", "140501.245000", "140503.252500", "140505.260000", "140507.267500", "140509.275000", "140511.285000", "140513.292500", "140515.300000", "140517.307500", "140519.315000", "140521.325000", "140523.332500", "140525.340000", "140527.347500", "140529.357500", "140531.365000", "140533.372500", "140535.380000", "140537.387500", "140539.397500", "140541.405000", "140543.412500", "140545.420000", "140547.427500", "140549.437500", "140551.445000", "140553.452500", "140555.460000", "140557.467500", "140559.477500", "140601.485000", "140603.492500", "140605.500000", "140607.510000", "140609.517500", "140611.525000", "140613.532500", "140615.540000", "140617.550000", "140619.557500", "140621.565000", "140623.572500", "140625.580000", "140627.590000", "140629.597500", "140631.605000", "140633.612500", "140635.622500", "140637.630000", "140639.637500", "140641.645000", "140643.652500", "140645.662500", "140647.670000", "140649.677500", "140651.685000", "140653.692500", "140655.702500", "140657.710000", "140659.717500", "140701.725000", "140703.735000", "140705.742500", "140707.750000", "140709.757500", "140711.765000", "140713.775000", "140715.782500", "140717.790000", "140719.797500", "140721.805000", "140723.815000", "140725.822500", "140727.830000", "140729.837500", "140731.845000", "140733.855000", "140735.862500", "140737.870000", "140739.877500", "140741.887500", "140743.895000", "140745.902500", "140747.910000", "140749.917500", "140751.927500", "140753.935000", "140755.942500", "140757.950000", "140759.957500", "140801.967500", "140803.975000", "140805.982500", "140807.990000", "140810.000000", "140812.007500", "140814.015000", "140816.022500", "140818.030000", "140820.040000"],
      "ContentTime": ["140352.343000", "140352.343000", "140352.343000", "140352.343000", "140352.343000", "140352.343000", "140352.343000", "140352.359000", "140352.359000", "140352.359000", "140352.359000", "140352.359000", "140352.359000", "140352.375000", "140352.375000", "140352.375000", "140352.375000", "140352.375000", "140352.375000", "140352.375000", "140352.390000", "140352.390000", "140352.390000", "140352.390000", "140352.390000", "140352.390000", "140352.390000", "140352.390000", "140352.406000", "140432.328000", "140432.328000", "140432.328000", "140432.343000", "140432.343000", "140432.343000", "140432.343000", "140432.343000", "140432.343000", "140432.343000", "140432.343000", "140432.359000", "140432.359000", "140432.359000", "140432.359000", "140432.359000", "140432.359000", "140432.359000", "140432.359000", "140432.375000", "140512.328000", "140512.328000", "140512.328000", "140512.343000", "140512.343000", "140512.343000", "140512.343000", "140512.343000", "140512.343000", "140512.359000", "140512.359000", "140512.359000", "140512.359000", "140512.359000", "140512.359000", "140512.375000", "140512.375000", "140512.375000", "140512.375000", "140512.375000", "140552.328000", "140552.328000", "140552.328000", "140552.343000", "140552.343000", "140552.343000", "140552.343000", "140552.359000", "140552.359000", "140552.359000", "140552.359000", "140552.359000", "140552.359000", "140552.359000", "140552.375000", "140552.375000", "140552.375000", "140552.375000", "140552.375000", "140552.375000", "140632.328000", "140632.328000", "140632.328000", "140632.343000", "140632.343000", "140632.343000", "140632.343000", "140632.343000", "140632.343000", "140632.359000", "140632.359000", "140632.359000", "140632.359000", "140632.359000", "140632.359000", "140632.359000", "140632.359000", "140632.375000", "140632.375000", "140632.375000", "140712.328000", "140712.328000", "140712.328000", "140712.343000", "140712.343000", "140712.343000", "140712.343000", "140712.343000", "140712.343000", "140712.343000", "140712.343000", "140712.359000", "140712.359000", "140712.359000", "140712.359000", "140712.359000", "140712.359000", "140712.359000", "140712.359000", "140712.375000", "140752.328000", "140752.343000", "140752.343000", "140752.343000", "140752.343000", "140752.343000", "140752.343000", "140752.359000", "140752.359000", "140752.359000", "140752.359000", "140752.359000", "140752.359000", "140752.375000", "140752.375000", "140752.375000", "140752.375000", "140752.390000", "140752.390000", "140752.390000", "140821.578000", "140821.578000", "140821.578000", "140821.578000", "140821.593000", "140821.593000", "140821.593000", "140821.593000", "140821.593000", "140821.593000", "140821.593000", "140821.593000", "140821.609000", "140821.609000", "140821.609000"],
      "InstanceCreationTime": ["140352.343000", "140352.343000", "140352.343000", "140352.343000", "140352.343000", "140352.343000", "140352.343000", "140352.359000", "140352.359000", "140352.359000", "140352.359000", "140352.359000", "140352.359000", "140352.375000", "140352.375000", "140352.375000", "140352.375000", "140352.375000", "140352.375000", "140352.375000", "140352.390000", "140352.390000", "140352.390000", "140352.390000", "140352.390000", "140352.390000", "140352.390000", "140352.390000", "140352.406000", "140432.328000", "140432.328000", "140432.328000", "140432.343000", "140432.343000", "140432.343000", "140432.343000", "140432.343000", "140432.343000", "140432.343000", "140432.343000", "140432.359000", "140432.359000", "140432.359000", "140432.359000", "140432.359000", "140432.359000", "140432.359000", "140432.359000", "140432.375000", "140512.328000", "140512.328000", "140512.328000", "140512.343000", "140512.343000", "140512.343000", "140512.343000", "140512.343000", "140512.343000", "140512.359000", "140512.359000", "140512.359000", "140512.359000", "140512.359000", "140512.359000", "140512.375000", "140512.375000", "140512.375000", "140512.375000", "140512.375000", "140552.328000", "140552.328000", "140552.328000", "140552.343000", "140552.343000", "140552.343000", "140552.343000", "140552.359000", "140552.359000", "140552.359000", "140552.359000", "140552.359000", "140552.359000", "140552.359000", "140552.375000", "140552.375000", "140552.375000", "140552.375000", "140552.375000", "140552.375000", "140632.328000", "140632.328000", "140632.328000", "140632.343000", "140632.343000", "140632.343000", "140632.343000", "140632.343000", "140632.343000", "140632.359000", "140632.359000", "140632.359000", "140632.359000", "140632.359000", "140632.359000", "140632.359000", "140632.359000", "140632.375000", "140632.375000", "140632.375000", "140712.328000", "140712.328000", "140712.328000", "140712.343000", "140712.343000", "140712.343000", "140712.343000", "140712.343000", "140712.343000", "140712.343000", "140712.343000", "140712.359000", "140712.359000", "140712.359000", "140712.359000", "140712.359000", "140712.359000", "140712.359000", "140712.359000", "140712.375000", "140752.328000", "140752.343000", "140752.343000", "140752.343000", "140752.343000", "140752.343000", "140752.343000", "140752.359000", "140752.359000", "140752.359000", "140752.359000", "140752.359000", "140752.359000", "140752.375000", "140752.375000", "140752.375000", "140752.375000", "140752.390000", "140752.390000", "140752.390000", "140821.578000", "140821.578000", "140821.578000", "140821.578000", "140821.593000", "140821.593000", "140821.593000", "140821.593000", "140821.593000", "140821.593000", "140821.593000", "140821.593000", "140821.609000", "140821.609000", "140821.609000"],
      "InstanceNumber": [1, 2, 3, 4, 5, 6, 7, 8, 9, 10, 11, 12, 13, 14, 15, 16, 17, 18, 19, 20, 21, 22, 23, 24, 25, 26, 27, 28, 29, 30, 31, 32, 33, 34, 35, 36, 37, 38, 39, 40, 41, 42, 43, 44, 45, 46, 47, 48, 49, 50, 51, 52, 53, 54, 55, 56, 57, 58, 59, 60, 61, 62, 63, 64, 65, 66, 67, 68, 69, 70, 71, 72, 73, 74, 75, 76, 77, 78, 79, 80, 81, 82, 83, 84, 85, 86, 87, 88, 89, 90, 91, 92, 93, 94, 95, 96, 97, 98, 99, 100, 101, 102, 103, 104, 105, 106, 107, 108, 109, 110, 111, 112, 113, 114, 115, 116, 117, 118, 119, 120, 121, 122, 123, 124, 125, 126, 127, 128, 129, 130, 131, 132, 133, 134, 135, 136, 137, 138, 139, 140, 141, 142, 143, 144, 145, 146, 147, 148, 149, 150, 151, 152, 153, 154, 155, 156, 157, 158, 159, 160, 161, 162, 163, 164],
      "LargestImagePixelValue": [1654, 1594, 1655, 1606, 1583, 1568, 1580, 1545, 1576, 1572, 1583, 1595, 1566, 1587, 1572, 1580, 1564, 1591, 1587, 1555, 1586, 1558, 1647, 1617, 1575, 1600, 1584, 1606, 1569, 1592, 1594, 1624, 1584, 1585, 1603, 1587, 1597, 1613, 1611, 1606, 1602, 1594, 1597, 1621, 1594, 1575, 1578, 1585, 1586, 1587, 1576, 1643, 1553, 1611, 1601, 1579, 1594, 1585, 1580, 1585, 1604, 1603, 1593, 1589, 1589, 1621, 1616, 1556, 1595, 1592, 1606, 1586, 1603, 1582, 1592, 1573, 1582, 1609, 1573, 1619, 1628, 1625, 1617, 1602, 1616, 1610, 1586, 1605, 1630, 1618, 1589, 1613, 1601, 1605, 1559, 1595, 1593, 1588, 1603, 1591, 1592, 1602, 1591, 1596, 1596, 1594, 1604, 1598, 1604, 1592, 1615, 1597, 1586, 1607, 1596, 1593, 1575, 1601, 1598, 1579, 1578, 1592, 1601, 1608, 1609, 1592, 1605, 1592, 1601, 1576, 1593, 1593, 1741, 1604, 1606, 1609, 1621, 1578, 1593, 1586, 1589, 1596, 1601, 1609, 1599, 1599, 1606, 1604, 1599, 1606, 1583, 1599, 1589, 1615, 1610, 1600, 1614, 1613, 1599, 1612, 1595, 1592, 1601, 1599],
      "WindowCenter": [692.0, 691.0, 692.0, 691.0, 692.0, 691.0, 691.0, 690.0, 690.0, 691.0, 691.0, 692.0, 692.0, 692.0, 692.0, 692.0, 692.0, 692.0, 692.0, 692.0, 693.0, 694.0, 695.0, 695.0, 695.0, 694.0, 693.0, 693.0, 693.0, 694.0, 694.0, 695.0, 695.0, 694.0, 693.0, 694.0, 694.0, 695.0, 695.0, 693.0, 693.0, 692.0, 693.0, 692.0, 693.0, 692.0, 692.0, 691.0, 691.0, 692.0, 692.0, 693.0, 693.0, 694.0, 693.0, 693.0, 692.0, 691.0, 692.0, 692.0, 692.0, 692.0, 691.0, 691.0, 691.0, 691.0, 691.0, 691.0, 692.0, 691.0, 693.0, 692.0, 692.0, 692.0, 691.0, 691.0, 691.0, 691.0, 692.0, 693.0, 693.0, 693.0, 693.0, 693.0, 692.0, 691.0, 692.0, 693.0, 693.0, 693.0, 693.0, 692.0, 691.0, 691.0, 691.0, 692.0, 693.0, 693.0, 694.0, 693.0, 693.0, 693.0, 693.0, 693.0, 692.0, 693.0, 693.0, 692.0, 692.0, 692.0, 691.0, 692.0, 692.0, 693.0, 693.0, 693.0, 693.0, 693.0, 693.0, 693.0, 693.0, 693.0, 693.0, 692.0, 691.0, 691.0, 691.0, 691.0, 692.0, 692.0, 691.0, 692.0, 692.0, 691.0, 692.0, 693.0, 692.0, 693.0, 693.0, 693.0, 692.0, 693.0, 693.0, 692.0, 692.0, 692.0, 693.0, 693.0, 692.0, 692.0, 692.0, 693.0, 693.0, 693.0, 693.0, 692.0, 692.0, 692.0, 692.0, 692.0, 692.0, 691.0, 691.0, 691.0],
      "WindowWidth": [1499.0, 1494.0, 1497.0, 1496.0, 1496.0, 1495.0, 1495.0, 1492.0, 1492.0, 1495.0, 1494.0, 1499.0, 1497.0, 1499.0, 1498.0, 1497.0, 1497.0, 1497.0, 1498.0, 1499.0, 1500.0, 1502.0, 1505.0, 1507.0, 1504.0, 1503.0, 1499.0, 1499.0, 1502.0, 1503.0, 1504.0, 1505.0, 1505.0, 1502.0, 1501.0, 1503.0, 1502.0, 1504.0, 1505.0, 1501.0, 1500.0, 1499.0, 1500.0, 1499.0, 1500.0, 1498.0, 1496.0, 1495.0, 1495.0, 1496.0, 1497.0, 1500.0, 1500.0, 1503.0, 1501.0, 1500.0, 1499.0, 1495.0, 1497.0, 1498.0, 1498.0, 1499.0, 1495.0, 1495.0, 1494.0, 1495.0, 1496.0, 1495.0, 1497.0, 1495.0, 1499.0, 1498.0, 1498.0, 1497.0, 1495.0, 1495.0, 1494.0, 1495.0, 1497.0, 1499.0, 1501.0, 1500.0, 1501.0, 1499.0, 1499.0, 1495.0, 1498.0, 1499.0, 1500.0, 1501.0, 1500.0, 1497.0, 1495.0, 1496.0, 1495.0, 1497.0, 1501.0, 1502.0, 1502.0, 1501.0, 1500.0, 1500.0, 1499.0, 1499.0, 1498.0, 1501.0, 1499.0, 1498.0, 1497.0, 1497.0, 1496.0, 1498.0, 1498.0, 1501.0, 1501.0, 1500.0, 1499.0, 1499.0, 1500.0, 1500.0, 1501.0, 1500.0, 1499.0, 1498.0, 1494.0, 1494.0, 1496.0, 1495.0, 1497.0, 1497.0, 1496.0, 1496.0, 1498.0, 1495.0, 1497.0, 1500.0, 1498.0, 1499.0, 1499.0, 1499.0, 1498.0, 1501.0, 1499.0, 1498.0, 1498.0, 1498.0, 1499.0, 1499.0, 1498.0, 1498.0, 1497.0, 1500.0, 1499.0, 1499.0, 1500.0, 1498.0, 1496.0, 1496.0, 1497.0, 1497.0, 1497.0, 1495.0, 1495.0, 1495.0]
    },
    "slices": {}
  }
}