{
  "AcquisitionMatrixPE": 64,
  "AcquisitionNumber": 1,
  "AcquisitionTime": "16:31:4.172500",
  "BandwidthPerPixelPhaseEncode": 33.967,
  "BaseResolution": 64,
  "CoilCombinationMethod": "Sum of Squares",
  "CoilString": "C:HEA;HEP",
  "ConversionSoftware": "dcm2niix",
  "ConversionSoftwareVersion": "v1.0.20220720",
  "DerivedVendorReportedEchoSpacing": 0.000460005,
  "DeviceSerialNumber": "35193",
  "DwellTime": 3.1e-06,
  "EchoTime": 0.03,
  "EffectiveEchoSpacing": 0.000460005,
  "FlipAngle": 90,
  "HeudiconvVersion": "1.1.6",
  "ImageOrientationPatientDICOM": [0.999257, -0.00349065, -0.0383876, 0.00348808, 0.999994, -0.000133999],
  "ImageOrientationText": "Tra>Sag(-2.2)",
  "ImageType": [
    "ORIGINAL",
    "PRIMARY",
    "M",
    "ND",
    "MOSAIC"
],
  "ImagingFrequency": 123.254,
  "InPlanePhaseEncodingDirectionDICOM": "COL",
  "InstitutionAddress": "Xinjiekouwai Street No 19,Beijing,Haidian District,CN,100875",
  "InstitutionName": "Beijing Normal Universtiy/2773C4/",
  "InstitutionalDepartmentName": "Department",
  "MRAcquisitionType": "2D",
  "MagneticFieldStrength": 3,
  "Manufacturer": "Siemens",
  "ManufacturersModelName": "TrioTim",
  "MatrixCoilMode": "SENSE",
  "Modality": "MR",
  "NonlinearGradientCorrection": false,
  "PartialFourier": 1,
  "PatientPosition": "HFS",
  "PercentPhaseFOV": 100,
  "PercentSampling": 100,
  "PhaseEncodingDirection": "j-",
  "PhaseEncodingSteps": 64,
  "PhaseResolution": 1,
  "PixelBandwidth": 2520,
  "ProcedureStepDescription": "BNU_cst_2015^Guo.TaoMei",
  "ProtocolName": "ge_func_3x3x4_164",
  "PulseSequenceDetails": "%SiemensSeq%\\ep2d_bold",
  "ReceiveCoilName": "HeadMatrix",
  "ReconMatrixPE": 64,
  "RepetitionTime": 2,
  "SAR": 0.142636,
  "ScanOptions": "FS",
  "ScanningSequence": "EP",
  "SequenceName": "*epfid2d1_64",
  "SequenceVariant": "SK",
  "SeriesDescription": "ge_func_3x3x4_164",
  "SeriesNumber": 5,
  "ShimSetting": [-4528, -19401, -9856, 906, -100, -688, -351, 30],
  "SliceThickness": 4,
  "SliceTiming": [0, 1.035, 0.0625, 1.095, 0.1225, 1.1575, 0.1825, 1.2175, 0.245, 1.2775, 0.305, 1.34, 0.365, 1.4, 0.4275, 1.46, 0.4875, 1.5225, 0.5475, 1.5825, 0.61, 1.6425, 0.67, 1.705, 0.73, 1.765, 0.7925, 1.825, 0.8525, 1.8875, 0.9125, 1.9475, 0.975],
  "SoftwareVersions": "syngo MR B17",
  "SpacingBetweenSlices": 4.6,
  "StationName": "MRC35193",
  "TaskName": "LanguageControl",
  "TotalReadoutTime": 0.0289803,
  "TxRefAmp": 352.5,
  "dcmmeta_affine": [
    [-3.1226775646209717, 0.010900241322815418, -0.176583930850029, 110.50950622558594],
    [0.010908281430602074, 3.124980926513672, -2.3758632838877247e-09, -96.54877471923828],
    [-0.11996117979288101, 0.00041874664020724595, 4.596609115600586, -67.02117919921875],
    [0.0, 0.0, 0.0, 1.0]
],
  "dcmmeta_reorient_transform": [
    [0.0, -1.0, 0.0, 63.0],
    [1.0, 0.0, 0.0, 0.0],
    [0.0, 0.0, 1.0, 0.0],
    [0.0, 0.0, 0.0, 1.0]
],
  "dcmmeta_shape": [64, 64, 33, 164],
  "dcmmeta_slice_dim": 2,
  "dcmmeta_version": 0.6,
  "global": {
    "const": {
      "AcquisitionMatrix": [64, 0, 0, 64],
      "AngioFlag": "N",
      "BitsAllocated": 16,
      "BitsStored": 12,
      "Columns": 384,
      "EchoNumbers": 1,
      "EchoTime": 30.0,
      "EchoTrainLength": 1,
      "FlipAngle": 90.0,
      "HighBit": 11,
      "ImageOrientationPatient": [0.99925682850083, -0.0034906500279, -0.0383875768555, 0.00348807710701, 0.99999390766263, -0.0001339989287],
      "ImagePositionPatient": [-612.56867149886, -598.57665335088, -47.734008875189],
      "ImageType": [
        "ORIGINAL",
        "PRIMARY",
        "M",
        "ND",
        "MOSAIC"
],
      "ImagedNucleus": "1H",
      "ImagingFrequency": 123.253672,
      "InPlanePhaseEncodingDirection": "COL",
      "MRAcquisitionType": "2D",
      "MagneticFieldStrength": 3.0,
      "Manufacturer": "SIEMENS",
      "ManufacturerModelName": "TrioTim",
      "Modality": "MR",
      "NumberOfAverages": 1.0,
      "NumberOfPhaseEncodingSteps": 64,
      "PercentPhaseFieldOfView": 100.0,
      "PercentSampling": 100.0,
      "PerformedProcedureStepStartTime": "160042.828000",
      "PhotometricInterpretation": "MONOCHROME2",
      "PixelBandwidth": 2520.0,
      "PixelRepresentation": 0,
      "PixelSpacing": [3.125, 3.125],
      "ProtocolName": "ge_func_3x3x4_164",
      "RepetitionTime": 2000.0,
      "Rows": 384,
      "SAR": 0.14263551896239,
      "SamplesPerPixel": 1,
      "ScanOptions": "FS",
      "ScanningSequence": "EP",
      "SequenceName": "*epfid2d1_64",
      "SequenceVariant": "SK",
      "SeriesDescription": "ge_func_3x3x4_164",
      "SeriesNumber": 5,
      "SeriesTime": "163156.609000",
      "SliceLocation": -71.213995446624,
      "SliceThickness": 4.0,
      "SmallestImagePixelValue": 0,
      "SoftwareVersions": "syngo MR B17",
      "SpacingBetweenSlices": 4.5999999383509,
      "SpecificCharacterSet": "ISO_IR 100",
      "StudyID": "1",
      "StudyTime": "160042.765000",
      "TransmitCoilName": "Body",
      "VariableFlipAngleFlag": "N",
      "WindowCenterWidthExplanation": "Algo1",
      "dBdt": 0.0},
    "slices": {}
  },
  "time": {
    "samples": {
      "AcquisitionNumber": [1, 2, 3, 4, 5, 6, 7, 8, 9, 10, 11, 12, 13, 14, 15, 16, 17, 18, 19, 20, 21, 22, 23, 24, 25, 26, 27, 28, 29, 30, 31, 32, 33, 34, 35, 36, 37, 38, 39, 40, 41, 42, 43, 44, 45, 46, 47, 48, 49, 50, 51, 52, 53, 54, 55, 56, 57, 58, 59, 60, 61, 62, 63, 64, 65, 66, 67, 68, 69, 70, 71, 72, 73, 74, 75, 76, 77, 78, 79, 80, 81, 82, 83, 84, 85, 86, 87, 88, 89, 90, 91, 92, 93, 94, 95, 96, 97, 98, 99, 100, 101, 102, 103, 104, 105, 106, 107, 108, 109, 110, 111, 112, 113, 114, 115, 116, 117, 118, 119, 120, 121, 122, 123, 124, 125, 126, 127, 128, 129, 130, 131, 132, 133, 134, 135, 136, 137, 138, 139, 140, 141, 142, 143, 144, 145, 146, 147, 148, 149, 150, 151, 152, 153, 154, 155, 156, 157, 158, 159, 160, 161, 162, 163, 164],
      "AcquisitionTime": ["163104.172500", "163106.180000", "163108.190000", "163110.197500", "163112.205000", "163114.212500", "163116.220000", "163118.230000", "163120.237500", "163122.245000", "163124.252500", "163126.262500", "163128.270000", "163130.277500", "163132.285000", "163134.292500", "163136.302500", "163138.310000", "163140.317500", "163142.325000", "163144.332500", "163146.342500", "163148.350000", "163150.357500", "163152.365000", "163154.375000", "163156.382500", "163158.390000", "163200.397500", "163202.405000", "163204.415000", "163206.422500", "163208.430000", "163210.437500", "163212.445000", "163214.455000", "163216.462500", "163218.470000", "163220.477500", "163222.487500", "163224.495000", "163226.502500", "163228.510000", "163230.517500", "163232.527500", "163234.535000", "163236.542500", "163238.550000", "163240.557500", "163242.567500", "163244.575000", "163246.582500", "163248.590000", "163250.597500", "163252.607500", "163254.615000", "163256.622500", "163258.630000", "163300.640000", "163302.647500", "163304.655000", "163306.662500", "163308.670000", "163310.680000", "163312.687500", "163314.695000", "163316.702500", "163318.710000", "163320.720000", "163322.727500", "163324.735000", "163326.742500", "163328.752500", "163330.760000", "163332.767500", "163334.775000", "163336.782500", "163338.792500", "163340.800000", "163342.807500", "163344.815000", "163346.822500", "163348.832500", "163350.840000", "163352.847500", "163354.855000", "163356.865000", "163358.872500", "163400.880000", "163402.887500", "163404.895000", "163406.905000", "163408.912500", "163410.920000", "163412.927500", "163414.935000", "163416.945000", "163418.952500", "163420.960000", "163422.967500", "163424.975000", "163426.985000", "163428.992500", "163431.000000", "163433.007500", "163435.017500", "163437.025000", "163439.032500", "163441.040000", "163443.047500", "163445.057500", "163447.065000", "163449.072500", "163451.080000", "163453.087500", "163455.097500", "163457.105000", "163459.112500", "163501.120000", "163503.130000", "163505.137500", "163507.145000", "163509.152500", "163511.160000", "163513.170000", "163515.177500", "163517.185000", "163519.192500", "163521.200000", "163523.210000", "163525.217500", "163527.225000", "163529.232500", "163531.242500", "163533.250000", "163535.257500", "163537.265000", "163539.272500", "163541.282500", "163543.290000", "163545.297500", "163547.305000", "163549.312500", "163551.322500", "163553.330000", "163555.337500", "163557.345000", "163559.352500", "163601.362500", "163603.370000", "163605.377500", "163607.385000", "163609.395000", "163611.402500", "163613.410000", "163615.417500", "163617.425000", "163619.435000", "163621.442500", "163623.450000", "163625.457500", "163627.465000", "163629.475000", "163631.482500"],
      "ContentTime": ["163156.625000", "163156.625000", "163156.625000", "163156.625000", "163156.625000", "163156.625000", "163156.640000", "163156.640000", "163156.640000", "163156.640000", "163156.640000", "163156.640000", "163156.640000", "163156.640000", "163156.656000", "163156.656000", "163156.656000", "163156.656000", "163156.656000", "163156.671000", "163156.671000", "163156.671000", "163156.671000", "163156.671000", "163156.687000", "163236.609000", "163236.609000", "163236.625000", "163236.625000", "163236.625000", "163236.625000", "163236.625000", "163236.625000", "163236.625000", "163236.625000", "163236.640000", "163236.640000", "163236.640000", "163236.640000", "163236.640000", "163236.656000", "163236.656000", "163236.656000", "163236.656000", "163236.656000", "163316.609000", "163316.609000", "163316.625000", "163316.625000", "163316.625000", "163316.625000", "163316.640000", "163316.640000", "163316.640000", "163316.640000", "163316.640000", "163316.640000", "163316.656000", "163316.656000", "163316.656000", "163316.656000", "163316.656000", "163316.656000", "163316.656000", "163316.656000", "163356.609000", "163356.609000", "163356.625000", "163356.625000", "163356.625000", "163356.640000", "163356.640000", "163356.640000", "163356.640000", "163356.640000", "163356.640000", "163356.640000", "163356.640000", "163356.656000", "163356.656000", "163356.656000", "163356.656000", "163356.656000", "163356.656000", "163356.656000", "163436.609000", "163436.609000", "163436.625000", "163436.625000", "163436.640000", "163436.640000", "163436.640000", "163436.640000", "163436.640000", "163436.640000", "163436.656000", "163436.656000", "163436.656000", "163436.656000", "163436.671000", "163436.671000", "163436.671000", "163436.671000", "163436.671000", "163436.671000", "163516.609000", "163516.625000", "163516.625000", "163516.625000", "163516.625000", "163516.625000", "163516.625000", "163516.640000", "163516.640000", "163516.640000", "163516.640000", "163516.640000", "163516.640000", "163516.640000", "163516.656000", "163516.656000", "163516.656000", "163516.656000", "163516.656000", "163516.656000", "163556.609000", "163556.609000", "163556.625000", "163556.625000", "163556.625000", "163556.625000", "163556.625000", "163556.625000", "163556.625000", "163556.640000", "163556.640000", "163556.640000", "163556.640000", "163556.640000", "163556.640000", "163556.656000", "163556.656000", "163556.656000", "163556.656000", "163556.656000", "163633.234000", "163633.234000", "163633.234000", "163633.250000", "163633.250000", "163633.250000", "163633.250000", "163633.250000", "163633.250000", "163633.250000", "163633.265000", "163633.265000", "163633.265000", "163633.265000", "163633.265000", "163633.265000", "163633.265000", "163633.265000", "163633.281000"],
      "InstanceCreationTime": ["163156.625000", "163156.625000", "163156.625000", "163156.625000", "163156.625000", "163156.625000", "163156.640000", "163156.640000", "163156.640000", "163156.640000", "163156.640000", "163156.640000", "163156.640000", "163156.640000", "163156.656000", "163156.656000", "163156.656000", "163156.656000", "163156.656000", "163156.671000", "163156.671000", "163156.671000", "163156.671000", "163156.671000", "163156.687000", "163236.609000", "163236.609000", "163236.625000", "163236.625000", "163236.625000", "163236.625000", "163236.625000", "163236.625000", "163236.625000", "163236.625000", "163236.640000", "163236.640000", "163236.640000", "163236.640000", "163236.640000", "163236.656000", "163236.656000", "163236.656000", "163236.656000", "163236.656000", "163316.609000", "163316.609000", "163316.625000", "163316.625000", "163316.625000", "163316.625000", "163316.640000", "163316.640000", "163316.640000", "163316.640000", "163316.640000", "163316.640000", "163316.656000", "163316.656000", "163316.656000", "163316.656000", "163316.656000", "163316.656000", "163316.656000", "163316.656000", "163356.609000", "163356.609000", "163356.625000", "163356.625000", "163356.625000", "163356.640000", "163356.640000", "163356.640000", "163356.640000", "163356.640000", "163356.640000", "163356.640000", "163356.640000", "163356.656000", "163356.656000", "163356.656000", "163356.656000", "163356.656000", "163356.656000", "163356.656000", "163436.609000", "163436.609000", "163436.625000", "163436.625000", "163436.640000", "163436.640000", "163436.640000", "163436.640000", "163436.640000", "163436.640000", "163436.656000", "163436.656000", "163436.656000", "163436.656000", "163436.671000", "163436.671000", "163436.671000", "163436.671000", "163436.671000", "163436.671000", "163516.609000", "163516.625000", "163516.625000", "163516.625000", "163516.625000", "163516.625000", "163516.625000", "163516.640000", "163516.640000", "163516.640000", "163516.640000", "163516.640000", "163516.640000", "163516.640000", "163516.656000", "163516.656000", "163516.656000", "163516.656000", "163516.656000", "163516.656000", "163556.609000", "163556.609000", "163556.625000", "163556.625000", "163556.625000", "163556.625000", "163556.625000", "163556.625000", "163556.625000", "163556.640000", "163556.640000", "163556.640000", "163556.640000", "163556.640000", "163556.640000", "163556.656000", "163556.656000", "163556.656000", "163556.656000", "163556.656000", "163633.234000", "163633.234000", "163633.234000", "163633.250000", "163633.250000", "163633.250000", "163633.250000", "163633.250000", "163633.250000", "163633.250000", "163633.265000", "163633.265000", "163633.265000", "163633.265000", "163633.265000", "163633.265000", "163633.265000", "163633.265000", "163633.281000"],
      "InstanceNumber": [1, 2, 3, 4, 5, 6, 7, 8, 9, 10, 11, 12, 13, 14, 15, 16, 17, 18, 19, 20, 21, 22, 23, 24, 25, 26, 27, 28, 29, 30, 31, 32, 33, 34, 35, 36, 37, 38, 39, 40, 41, 42, 43, 44, 45, 46, 47, 48, 49, 50, 51, 52, 53, 54, 55, 56, 57, 58, 59, 60, 61, 62, 63, 64, 65, 66, 67, 68, 69, 70, 71, 72, 73, 74, 75, 76, 77, 78, 79, 80, 81, 82, 83, 84, 85, 86, 87, 88, 89, 90, 91, 92, 93, 94, 95, 96, 97, 98, 99, 100, 101, 102, 103, 104, 105, 106, 107, 108, 109, 110, 111, 112, 113, 114, 115, 116, 117, 118, 119, 120, 121, 122, 123, 124, 125, 126, 127, 128, 129, 130, 131, 132, 133, 134, 135, 136, 137, 138, 139, 140, 141, 142, 143, 144, 145, 146, 147, 148, 149, 150, 151, 152, 153, 154, 155, 156, 157, 158, 159, 160, 161, 162, 163, 164],
      "LargestImagePixelValue": [1909, 1867, 1805, 1818, 1818, 1825, 1796, 1835, 1839, 1816, 1827, 1824, 1830, 1855, 1826, 1822, 1841, 1844, 1839, 1833, 1825, 1821, 1833, 1846, 1837, 1836, 1818, 1864, 1829, 1851, 1847, 1824, 1850, 1831, 1830, 1832, 1831, 1824, 1799, 1808, 1800, 1802, 1824, 1795, 1813, 1805, 1828, 1813, 1787, 1820, 1854, 1827, 1798, 1820, 1809, 1812, 1826, 1813, 1815, 1819, 1801, 1840, 1790, 1848, 1840, 1793, 1842, 1831, 1842, 1848, 1847, 1866, 1829, 1829, 1855, 1834, 1838, 1836, 1827, 1828, 1833, 1842, 1808, 1836, 1813, 1822, 1820, 1826, 1864, 1842, 1862, 1851, 1860, 1839, 1855, 1840, 1868, 1818, 1867, 1850, 1867, 1873, 1825, 1840, 1862, 1865, 1877, 1857, 1883, 1809, 1865, 1823, 1840, 1839, 1843, 1845, 1846, 1843, 1825, 1810, 1833, 1793, 1818, 1855, 1832, 1798, 1834, 1810, 1817, 1814, 1814, 1829, 1832, 1836, 1825, 1848, 1825, 1817, 1830, 1829, 1827, 1848, 1799, 1817, 1850, 1841, 1806, 1818, 1824, 1817, 1825, 1782, 1800, 1778, 1794, 1797, 1780, 1791, 1784, 1803, 1797, 1790, 1799, 1780],
      "WindowCenter": [735.0, 734.0, 734.0, 734.0, 733.0, 733.0, 732.0, 731.0, 733.0, 732.0, 731.0, 731.0, 732.0, 731.0, 732.0, 731.0, 731.0, 731.0, 731.0, 731.0, 732.0, 731.0, 730.0, 730.0, 731.0, 731.0, 731.0, 731.0, 730.0, 731.0, 731.0, 731.0, 731.0, 731.0, 730.0, 730.0, 731.0, 731.0, 731.0, 731.0, 731.0, 731.0, 731.0, 730.0, 730.0, 731.0, 730.0, 730.0, 730.0, 730.0, 731.0, 731.0, 731.0, 731.0, 731.0, 731.0, 732.0, 731.0, 731.0, 733.0, 733.0, 734.0, 731.0, 731.0, 731.0, 732.0, 731.0, 732.0, 731.0, 730.0, 730.0, 731.0, 731.0, 731.0, 731.0, 730.0, 730.0, 731.0, 730.0, 731.0, 732.0, 733.0, 732.0, 733.0, 732.0, 732.0, 733.0, 732.0, 732.0, 732.0, 732.0, 732.0, 732.0, 732.0, 733.0, 733.0, 733.0, 731.0, 731.0, 731.0, 731.0, 732.0, 732.0, 731.0, 732.0, 732.0, 732.0, 733.0, 732.0, 733.0, 733.0, 733.0, 732.0, 732.0, 732.0, 732.0, 733.0, 733.0, 733.0, 735.0, 735.0, 733.0, 733.0, 733.0, 734.0, 734.0, 735.0, 735.0, 734.0, 733.0, 734.0, 734.0, 734.0, 733.0, 732.0, 733.0, 733.0, 733.0, 734.0, 735.0, 734.0, 733.0, 732.0, 732.0, 733.0, 733.0, 732.0, 733.0, 732.0, 732.0, 733.0, 733.0, 734.0, 733.0, 733.0, 734.0, 734.0, 734.0, 733.0, 734.0, 733.0, 733.0, 734.0, 736.0],
      "WindowWidth": [1600.0, 1595.0, 1595.0, 1595.0, 1593.0, 1593.0, 1589.0, 1588.0, 1592.0, 1591.0, 1588.0, 1588.0, 1589.0, 1588.0, 1589.0, 1589.0, 1589.0, 1588.0, 1586.0, 1588.0, 1589.0, 1588.0, 1585.0, 1586.0, 1586.0, 1587.0, 1587.0, 1588.0, 1586.0, 1587.0, 1589.0, 1588.0, 1589.0, 1588.0, 1585.0, 1586.0, 1587.0, 1587.0, 1588.0, 1587.0, 1586.0, 1587.0, 1587.0, 1585.0, 1585.0, 1587.0, 1586.0, 1586.0, 1586.0, 1585.0, 1587.0, 1587.0, 1587.0, 1589.0, 1587.0, 1588.0, 1590.0, 1588.0, 1589.0, 1592.0, 1594.0, 1595.0, 1589.0, 1588.0, 1589.0, 1589.0, 1588.0, 1590.0, 1588.0, 1586.0, 1586.0, 1589.0, 1587.0, 1587.0, 1588.0, 1586.0, 1585.0, 1589.0, 1586.0, 1588.0, 1592.0, 1593.0, 1591.0, 1593.0, 1591.0, 1591.0, 1593.0, 1591.0, 1591.0, 1591.0, 1590.0, 1589.0, 1591.0, 1591.0, 1592.0, 1594.0, 1592.0, 1588.0, 1589.0, 1588.0, 1588.0, 1591.0, 1589.0, 1589.0, 1589.0, 1589.0, 1590.0, 1593.0, 1592.0, 1592.0, 1594.0, 1593.0, 1591.0, 1591.0, 1591.0, 1591.0, 1592.0, 1594.0, 1595.0, 1598.0, 1598.0, 1594.0, 1593.0, 1594.0, 1595.0, 1596.0, 1598.0, 1597.0, 1596.0, 1594.0, 1595.0, 1595.0, 1595.0, 1592.0, 1592.0, 1592.0, 1593.0, 1592.0, 1597.0, 1598.0, 1596.0, 1594.0, 1591.0, 1591.0, 1594.0, 1593.0, 1591.0, 1591.0, 1590.0, 1590.0, 1592.0, 1592.0, 1595.0, 1594.0, 1594.0, 1595.0, 1595.0, 1595.0, 1593.0, 1595.0, 1593.0, 1593.0, 1597.0, 1600.0]
    },
    "slices": {}
  }
}