{
  "AcquisitionMatrixPE": 64,
  "AcquisitionNumber": 1,
  "AcquisitionTime": "11:30:5.132500",
  "BandwidthPerPixelPhaseEncode": 33.967,
  "BaseResolution": 64,
  "CoilCombinationMethod": "Sum of Squares",
  "CoilString": "C:HEA;HEP",
  "ConversionSoftware": "dcm2niix",
  "ConversionSoftwareVersion": "v1.0.20220720",
  "DerivedVendorReportedEchoSpacing": 0.000460005,
  "DeviceSerialNumber": "35193",
  "DwellTime": 3.1e-06,
  "EchoTime": 0.03,
  "EffectiveEchoSpacing": 0.000460005,
  "FlipAngle": 90,
  "HeudiconvVersion": "1.1.6",
  "ImageOrientationPatientDICOM": [1, 0, 0, 0, 1, 0],
  "ImageOrientationText": "Tra",
  "ImageType": [
    "ORIGINAL",
    "PRIMARY",
    "M",
    "ND",
    "MOSAIC"
],
  "ImagingFrequency": 123.254,
  "InPlanePhaseEncodingDirectionDICOM": "COL",
  "InstitutionAddress": "Xinjiekouwai Street No 19,Beijing,Haidian District,CN,100875",
  "InstitutionName": "BNU MRI Center",
  "InstitutionalDepartmentName": "Department",
  "MRAcquisitionType": "2D",
  "MagneticFieldStrength": 3,
  "Manufacturer": "Siemens",
  "ManufacturersModelName": "TrioTim",
  "MatrixCoilMode": "SENSE",
  "Modality": "MR",
  "NonlinearGradientCorrection": false,
  "PartialFourier": 1,
  "PatientPosition": "HFS",
  "PercentPhaseFOV": 100,
  "PercentSampling": 100,
  "PhaseEncodingDirection": "j-",
  "PhaseEncodingSteps": 64,
  "PhaseResolution": 1,
  "PixelBandwidth": 2520,
  "ProcedureStepDescription": "BNU_cst_2015^Guo.TaoMei",
  "ProtocolName": "ge_func_3x3x4_164",
  "PulseSequenceDetails": "%SiemensSeq%\\ep2d_bold",
  "ReceiveCoilName": "HeadMatrix",
  "ReconMatrixPE": 64,
  "RepetitionTime": 2,
  "SAR": 0.15488,
  "ScanOptions": "FS",
  "ScanningSequence": "EP",
  "SequenceName": "*epfid2d1_64",
  "SequenceVariant": "SK",
  "SeriesDescription": "ge_func_3x3x4_164",
  "SeriesNumber": 2,
  "ShimSetting": [-4505, -19472, -9844, 1339, -140, -162, 559, 43],
  "SliceThickness": 4,
  "SliceTiming": [0, 1.0325, 0.06, 1.095, 0.12, 1.155, 0.1825, 1.215, 0.2425, 1.2775, 0.3025, 1.3375, 0.365, 1.3975, 0.425, 1.46, 0.485, 1.52, 0.5475, 1.58, 0.6075, 1.6425, 0.6675, 1.7025, 0.73, 1.7625, 0.79, 1.825, 0.85, 1.885, 0.9125, 1.945, 0.9725],
  "SoftwareVersions": "syngo MR B17",
  "SpacingBetweenSlices": 4.6,
  "StationName": "MRC35193",
  "TaskName": "CognitiveControl",
  "TotalReadoutTime": 0.0289803,
  "TxRefAmp": 331.059,
  "dcmmeta_affine": [
    [-3.125, 0.0, 0.0, 107.42168426513672],
    [0.0, 3.125, 0.0, -85.40512084960938],
    [0.0, 0.0, 4.599999904632568, -63.47951889038086],
    [0.0, 0.0, 0.0, 1.0]
],
  "dcmmeta_reorient_transform": [
    [0.0, -1.0, 0.0, 63.0],
    [1.0, 0.0, 0.0, 0.0],
    [0.0, 0.0, 1.0, 0.0],
    [0.0, 0.0, 0.0, 1.0]
],
  "dcmmeta_shape": [64, 64, 33, 164],
  "dcmmeta_slice_dim": 2,
  "dcmmeta_version": 0.6,
  "global": {
    "const": {
      "AcquisitionMatrix": [64, 0, 0, 64],
      "AngioFlag": "N",
      "BitsAllocated": 16,
      "BitsStored": 12,
      "Columns": 384,
      "EchoNumbers": 1,
      "EchoTime": 30.0,
      "EchoTrainLength": 1,
      "FlipAngle": 90.0,
      "HighBit": 11,
      "ImageOrientationPatient": [1.0, 0.0, 0.0, 0.0, 1.0, 0.0],
      "ImagePositionPatient": [-607.42168664932, -611.46987915039, -63.479518890381],
      "ImageType": [
        "ORIGINAL",
        "PRIMARY",
        "M",
        "ND",
        "MOSAIC"
],
      "ImagedNucleus": "1H",
      "ImagingFrequency": 123.253673,
      "InPlanePhaseEncodingDirection": "COL",
      "MRAcquisitionType": "2D",
      "MagneticFieldStrength": 3.0,
      "Manufacturer": "SIEMENS",
      "ManufacturerModelName": "TrioTim",
      "Modality": "MR",
      "NumberOfAverages": 1.0,
      "NumberOfPhaseEncodingSteps": 64,
      "PercentPhaseFieldOfView": 100.0,
      "PercentSampling": 100.0,
      "PerformedProcedureStepStartTime": "112748.984000",
      "PhotometricInterpretation": "MONOCHROME2",
      "PixelBandwidth": 2520.0,
      "PixelRepresentation": 0,
      "PixelSpacing": [3.125, 3.125],
      "ProtocolName": "ge_func_3x3x4_164",
      "RepetitionTime": 2000.0,
      "Rows": 384,
      "SAR": 0.15487989598721,
      "SamplesPerPixel": 1,
      "ScanOptions": "FS",
      "ScanningSequence": "EP",
      "SequenceName": "*epfid2d1_64",
      "SequenceVariant": "SK",
      "SeriesDescription": "ge_func_3x3x4_164",
      "SeriesNumber": 2,
      "SeriesTime": "113052.468000",
      "SliceLocation": -63.479518890381,
      "SliceThickness": 4.0,
      "SmallestImagePixelValue": 0,
      "SoftwareVersions": "syngo MR B17",
      "SpacingBetweenSlices": 4.6000000238419,
      "SpecificCharacterSet": "ISO_IR 100",
      "StudyID": "1",
      "StudyTime": "112748.906000",
      "TransmitCoilName": "Body",
      "VariableFlipAngleFlag": "N",
      "WindowCenterWidthExplanation": "Algo1",
      "dBdt": 0.0},
    "slices": {}
  },
  "time": {
    "samples": {
      "AcquisitionNumber": [1, 2, 3, 4, 5, 6, 7, 8, 9, 10, 11, 12, 13, 14, 15, 16, 17, 18, 19, 20, 21, 22, 23, 24, 25, 26, 27, 28, 29, 30, 31, 32, 33, 34, 35, 36, 37, 38, 39, 40, 41, 42, 43, 44, 45, 46, 47, 48, 49, 50, 51, 52, 53, 54, 55, 56, 57, 58, 59, 60, 61, 62, 63, 64, 65, 66, 67, 68, 69, 70, 71, 72, 73, 74, 75, 76, 77, 78, 79, 80, 81, 82, 83, 84, 85, 86, 87, 88, 89, 90, 91, 92, 93, 94, 95, 96, 97, 98, 99, 100, 101, 102, 103, 104, 105, 106, 107, 108, 109, 110, 111, 112, 113, 114, 115, 116, 117, 118, 119, 120, 121, 122, 123, 124, 125, 126, 127, 128, 129, 130, 131, 132, 133, 134, 135, 136, 137, 138, 139, 140, 141, 142, 143, 144, 145, 146, 147, 148, 149, 150, 151, 152, 153, 154, 155, 156, 157, 158, 159, 160, 161, 162, 163, 164],
      "AcquisitionTime": ["113005.132500", "113007.140000", "113009.147500", "113011.155000", "113013.162500", "113015.172500", "113017.180000", "113019.187500", "113021.195000", "113023.202500", "113025.212500", "113027.220000", "113029.227500", "113031.235000", "113033.245000", "113035.252500", "113037.260000", "113039.267500", "113041.275000", "113043.285000", "113045.292500", "113047.300000", "113049.307500", "113051.315000", "113053.325000", "113055.332500", "113057.340000", "113059.347500", "113101.357500", "113103.365000", "113105.372500", "113107.380000", "113109.387500", "113111.397500", "113113.405000", "113115.412500", "113117.420000", "113119.427500", "113121.437500", "113123.445000", "113125.452500", "113127.460000", "113129.467500", "113131.477500", "113133.485000", "113135.492500", "113137.500000", "113139.510000", "113141.517500", "113143.525000", "113145.532500", "113147.540000", "113149.550000", "113151.557500", "113153.565000", "113155.572500", "113157.580000", "113159.590000", "113201.597500", "113203.605000", "113205.612500", "113207.622500", "113209.630000", "113211.637500", "113213.645000", "113215.652500", "113217.662500", "113219.670000", "113221.677500", "113223.685000", "113225.692500", "113227.702500", "113229.710000", "113231.717500", "113233.725000", "113235.735000", "113237.742500", "113239.750000", "113241.757500", "113243.765000", "113245.775000", "113247.782500", "113249.790000", "113251.797500", "113253.805000", "113255.815000", "113257.822500", "113259.830000", "113301.837500", "113303.845000", "113305.855000", "113307.862500", "113309.870000", "113311.877500", "113313.887500", "113315.895000", "113317.902500", "113319.910000", "113321.917500", "113323.927500", "113325.935000", "113327.942500", "113329.950000", "113331.957500", "113333.967500", "113335.975000", "113337.982500", "113339.990000", "113342.000000", "113344.007500", "113346.015000", "113348.022500", "113350.030000", "113352.040000", "113354.047500", "113356.055000", "113358.062500", "113400.070000", "113402.080000", "113404.087500", "113406.095000", "113408.102500", "113410.112500", "113412.120000", "113414.127500", "113416.135000", "113418.142500", "113420.152500", "113422.160000", "113424.167500", "113426.175000", "113428.182500", "113430.192500", "113432.200000", "113434.207500", "113436.215000", "113438.222500", "113440.232500", "113442.240000", "113444.247500", "113446.255000", "113448.265000", "113450.272500", "113452.280000", "113454.287500", "113456.295000", "113458.305000", "113500.312500", "113502.320000", "113504.327500", "113506.335000", "113508.345000", "113510.352500", "113512.360000", "113514.367500", "113516.377500", "113518.385000", "113520.392500", "113522.400000", "113524.407500", "113526.417500", "113528.425000", "113530.432500", "113532.440000"],
      "ContentTime": ["113052.468000", "113052.468000", "113052.468000", "113052.468000", "113052.484000", "113052.484000", "113052.500000", "113052.500000", "113052.500000", "113052.500000", "113052.500000", "113052.500000", "113052.500000", "113052.500000", "113052.515000", "113052.515000", "113052.515000", "113052.515000", "113052.515000", "113052.515000", "113052.531000", "113052.531000", "113052.531000", "113132.468000", "113132.468000", "113132.468000", "113132.468000", "113132.468000", "113132.468000", "113132.468000", "113132.484000", "113132.484000", "113132.484000", "113132.484000", "113132.484000", "113132.484000", "113132.484000", "113132.500000", "113132.500000", "113132.500000", "113132.500000", "113132.500000", "113132.500000", "113212.468000", "113212.468000", "113212.468000", "113212.468000", "113212.468000", "113212.468000", "113212.468000", "113212.468000", "113212.484000", "113212.484000", "113212.484000", "113212.484000", "113212.484000", "113212.484000", "113212.500000", "113212.500000", "113212.500000", "113212.500000", "113212.500000", "113212.500000", "113252.468000", "113252.468000", "113252.468000", "113252.468000", "113252.468000", "113252.468000", "113252.484000", "113252.484000", "113252.484000", "113252.484000", "113252.484000", "113252.500000", "113252.500000", "113252.500000", "113252.500000", "113252.500000", "113252.500000", "113252.500000", "113252.500000", "113252.515000", "113332.468000", "113332.468000", "113332.468000", "113332.484000", "113332.484000", "113332.484000", "113332.484000", "113332.484000", "113332.484000", "113332.484000", "113332.500000", "113332.500000", "113332.500000", "113332.500000", "113332.500000", "113332.500000", "113332.500000", "113332.500000", "113332.515000", "113332.515000", "113412.453000", "113412.468000", "113412.468000", "113412.468000", "113412.468000", "113412.468000", "113412.468000", "113412.468000", "113412.468000", "113412.484000", "113412.484000", "113412.484000", "113412.484000", "113412.484000", "113412.484000", "113412.484000", "113412.484000", "113412.500000", "113412.500000", "113412.500000", "113452.468000", "113452.468000", "113452.468000", "113452.468000", "113452.484000", "113452.484000", "113452.484000", "113452.484000", "113452.484000", "113452.484000", "113452.484000", "113452.484000", "113452.500000", "113452.500000", "113452.500000", "113452.500000", "113452.500000", "113452.500000", "113452.500000", "113452.500000", "113532.468000", "113532.468000", "113532.468000", "113532.468000", "113532.468000", "113532.468000", "113532.468000", "113532.468000", "113532.484000", "113532.484000", "113532.484000", "113532.484000", "113532.484000", "113532.500000", "113532.500000", "113532.500000", "113532.500000", "113532.500000", "113532.515000", "113532.515000", "113533.265000"],
      "InstanceCreationTime": ["113052.468000", "113052.468000", "113052.468000", "113052.468000", "113052.484000", "113052.484000", "113052.500000", "113052.500000", "113052.500000", "113052.500000", "113052.500000", "113052.500000", "113052.500000", "113052.500000", "113052.515000", "113052.515000", "113052.515000", "113052.515000", "113052.515000", "113052.515000", "113052.531000", "113052.531000", "113052.531000", "113132.468000", "113132.468000", "113132.468000", "113132.468000", "113132.468000", "113132.468000", "113132.468000", "113132.484000", "113132.484000", "113132.484000", "113132.484000", "113132.484000", "113132.484000", "113132.484000", "113132.500000", "113132.500000", "113132.500000", "113132.500000", "113132.500000", "113132.500000", "113212.468000", "113212.468000", "113212.468000", "113212.468000", "113212.468000", "113212.468000", "113212.468000", "113212.468000", "113212.484000", "113212.484000", "113212.484000", "113212.484000", "113212.484000", "113212.484000", "113212.500000", "113212.500000", "113212.500000", "113212.500000", "113212.500000", "113212.500000", "113252.468000", "113252.468000", "113252.468000", "113252.468000", "113252.468000", "113252.468000", "113252.484000", "113252.484000", "113252.484000", "113252.484000", "113252.484000", "113252.500000", "113252.500000", "113252.500000", "113252.500000", "113252.500000", "113252.500000", "113252.500000", "113252.500000", "113252.515000", "113332.468000", "113332.468000", "113332.468000", "113332.484000", "113332.484000", "113332.484000", "113332.484000", "113332.484000", "113332.484000", "113332.484000", "113332.500000", "113332.500000", "113332.500000", "113332.500000", "113332.500000", "113332.500000", "113332.500000", "113332.500000", "113332.515000", "113332.515000", "113412.453000", "113412.468000", "113412.468000", "113412.468000", "113412.468000", "113412.468000", "113412.468000", "113412.468000", "113412.468000", "113412.484000", "113412.484000", "113412.484000", "113412.484000", "113412.484000", "113412.484000", "113412.484000", "113412.484000", "113412.500000", "113412.500000", "113412.500000", "113452.468000", "113452.468000", "113452.468000", "113452.468000", "113452.484000", "113452.484000", "113452.484000", "113452.484000", "113452.484000", "113452.484000", "113452.484000", "113452.484000", "113452.500000", "113452.500000", "113452.500000", "113452.500000", "113452.500000", "113452.500000", "113452.500000", "113452.500000", "113532.468000", "113532.468000", "113532.468000", "113532.468000", "113532.468000", "113532.468000", "113532.468000", "113532.468000", "113532.484000", "113532.484000", "113532.484000", "113532.484000", "113532.484000", "113532.500000", "113532.500000", "113532.500000", "113532.500000", "113532.500000", "113532.515000", "113532.515000", "113533.265000"],
      "InstanceNumber": [1, 2, 3, 4, 5, 6, 7, 8, 9, 10, 11, 12, 13, 14, 15, 16, 17, 18, 19, 20, 21, 22, 23, 24, 25, 26, 27, 28, 29, 30, 31, 32, 33, 34, 35, 36, 37, 38, 39, 40, 41, 42, 43, 44, 45, 46, 47, 48, 49, 50, 51, 52, 53, 54, 55, 56, 57, 58, 59, 60, 61, 62, 63, 64, 65, 66, 67, 68, 69, 70, 71, 72, 73, 74, 75, 76, 77, 78, 79, 80, 81, 82, 83, 84, 85, 86, 87, 88, 89, 90, 91, 92, 93, 94, 95, 96, 97, 98, 99, 100, 101, 102, 103, 104, 105, 106, 107, 108, 109, 110, 111, 112, 113, 114, 115, 116, 117, 118, 119, 120, 121, 122, 123, 124, 125, 126, 127, 128, 129, 130, 131, 132, 133, 134, 135, 136, 137, 138, 139, 140, 141, 142, 143, 144, 145, 146, 147, 148, 149, 150, 151, 152, 153, 154, 155, 156, 157, 158, 159, 160, 161, 162, 163, 164],
      "LargestImagePixelValue": [1874, 1818, 1808, 1800, 1800, 1803, 1791, 1792, 1801, 1804, 1813, 1818, 1806, 1814, 1803, 1813, 1801, 1810, 1803, 1815, 1803, 1802, 1811, 1805, 1785, 1794, 1809, 1800, 1796, 1807, 1808, 1823, 1785, 1786, 1800, 1787, 1800, 1786, 1793, 1787, 1801, 1798, 1809, 1785, 1792, 1788, 1795, 1813, 1815, 1817, 1803, 1813, 1805, 1801, 1806, 1809, 1813, 1818, 1810, 1818, 1798, 1805, 1808, 1827, 1819, 1806, 1807, 1826, 1811, 1806, 1805, 1828, 1823, 1825, 1816, 1794, 1812, 1817, 1815, 1808, 1806, 1802, 1796, 1795, 1801, 1791, 1813, 1799, 1788, 1799, 1797, 1805, 1790, 1800, 1823, 1823, 1807, 1784, 1790, 1791, 1804, 1809, 1814, 1818, 1811, 1804, 1801, 1804, 1794, 1817, 1819, 1822, 1809, 1809, 1818, 1807, 1830, 1822, 1817, 1831, 1820, 1831, 1816, 1841, 1836, 1831, 1823, 1834, 1830, 1837, 1815, 1830, 1832, 1830, 1831, 1832, 1827, 1830, 1825, 1818, 1793, 1813, 1825, 1841, 1837, 1827, 1813, 1833, 1824, 1818, 1834, 1808, 1839, 1833, 1829, 1823, 1814, 1825, 1821, 1823, 1808, 1822, 1837, 1810],
      "WindowCenter": [728.0, 725.0, 725.0, 724.0, 724.0, 724.0, 724.0, 724.0, 724.0, 725.0, 725.0, 725.0, 726.0, 726.0, 725.0, 725.0, 725.0, 725.0, 725.0, 725.0, 725.0, 724.0, 724.0, 724.0, 724.0, 724.0, 724.0, 724.0, 724.0, 724.0, 724.0, 724.0, 724.0, 723.0, 723.0, 724.0, 724.0, 724.0, 724.0, 724.0, 724.0, 724.0, 724.0, 724.0, 724.0, 723.0, 723.0, 724.0, 724.0, 724.0, 723.0, 723.0, 723.0, 723.0, 723.0, 724.0, 724.0, 725.0, 724.0, 725.0, 724.0, 724.0, 725.0, 725.0, 725.0, 725.0, 725.0, 725.0, 724.0, 724.0, 724.0, 725.0, 725.0, 725.0, 725.0, 725.0, 725.0, 724.0, 724.0, 724.0, 724.0, 724.0, 723.0, 723.0, 723.0, 723.0, 723.0, 724.0, 723.0, 723.0, 723.0, 723.0, 723.0, 723.0, 723.0, 723.0, 723.0, 723.0, 722.0, 723.0, 723.0, 723.0, 723.0, 724.0, 724.0, 723.0, 723.0, 723.0, 723.0, 723.0, 724.0, 724.0, 724.0, 725.0, 725.0, 725.0, 725.0, 725.0, 725.0, 725.0, 725.0, 725.0, 725.0, 725.0, 726.0, 726.0, 726.0, 726.0, 727.0, 727.0, 726.0, 726.0, 726.0, 726.0, 726.0, 726.0, 725.0, 725.0, 726.0, 726.0, 725.0, 725.0, 725.0, 725.0, 725.0, 724.0, 725.0, 725.0, 725.0, 725.0, 726.0, 726.0, 726.0, 726.0, 726.0, 725.0, 725.0, 725.0, 725.0, 726.0, 726.0, 726.0, 726.0, 726.0],
      "WindowWidth": [1581.0, 1573.0, 1571.0, 1568.0, 1567.0, 1567.0, 1569.0, 1569.0, 1570.0, 1571.0, 1571.0, 1573.0, 1573.0, 1573.0, 1572.0, 1571.0, 1571.0, 1572.0, 1572.0, 1572.0, 1570.0, 1569.0, 1570.0, 1570.0, 1568.0, 1567.0, 1568.0, 1569.0, 1570.0, 1569.0, 1568.0, 1568.0, 1568.0, 1566.0, 1567.0, 1569.0, 1568.0, 1568.0, 1568.0, 1568.0, 1567.0, 1568.0, 1569.0, 1568.0, 1568.0, 1566.0, 1567.0, 1568.0, 1568.0, 1568.0, 1566.0, 1566.0, 1565.0, 1566.0, 1567.0, 1569.0, 1569.0, 1570.0, 1569.0, 1570.0, 1570.0, 1570.0, 1571.0, 1572.0, 1573.0, 1572.0, 1571.0, 1570.0, 1570.0, 1569.0, 1569.0, 1570.0, 1571.0, 1572.0, 1571.0, 1571.0, 1571.0, 1570.0, 1569.0, 1569.0, 1569.0, 1568.0, 1567.0, 1566.0, 1566.0, 1567.0, 1567.0, 1567.0, 1567.0, 1566.0, 1566.0, 1566.0, 1566.0, 1566.0, 1567.0, 1566.0, 1565.0, 1564.0, 1564.0, 1565.0, 1565.0, 1565.0, 1567.0, 1567.0, 1568.0, 1567.0, 1567.0, 1566.0, 1566.0, 1567.0, 1569.0, 1569.0, 1570.0, 1570.0, 1571.0, 1571.0, 1571.0, 1570.0, 1571.0, 1572.0, 1571.0, 1573.0, 1572.0, 1573.0, 1574.0, 1574.0, 1575.0, 1576.0, 1576.0, 1577.0, 1575.0, 1575.0, 1575.0, 1575.0, 1574.0, 1573.0, 1572.0, 1573.0, 1573.0, 1573.0, 1571.0, 1572.0, 1573.0, 1572.0, 1571.0, 1570.0, 1571.0, 1572.0, 1572.0, 1573.0, 1574.0, 1574.0, 1574.0, 1574.0, 1573.0, 1571.0, 1572.0, 1573.0, 1573.0, 1574.0, 1574.0, 1574.0, 1575.0, 1575.0]
    },
    "slices": {}
  }
}