{
  "AcquisitionMatrixPE": 64,
  "AcquisitionNumber": 1,
  "AcquisitionTime": "09:59:56.910000",
  "BandwidthPerPixelPhaseEncode": 33.967,
  "BaseResolution": 64,
  "CoilCombinationMethod": "Sum of Squares",
  "CoilString": "C:HEA;HEP",
  "ConversionSoftware": "dcm2niix",
  "ConversionSoftwareVersion": "v1.0.20220720",
  "DerivedVendorReportedEchoSpacing": 0.000460005,
  "DeviceSerialNumber": "35193",
  "DwellTime": 3.1e-06,
  "EchoTime": 0.03,
  "EffectiveEchoSpacing": 0.000460005,
  "FlipAngle": 90,
  "HeudiconvVersion": "1.1.6",
  "ImageOrientationPatientDICOM": [0.999962, 0, -0.00872654, 0, 1, 0],
  "ImageOrientationText": "Tra>Sag(-0.5)",
  "ImageType": [
    "ORIGINAL",
    "PRIMARY",
    "M",
    "ND",
    "MOSAIC"
],
  "ImagingFrequency": 123.254,
  "InPlanePhaseEncodingDirectionDICOM": "COL",
  "InstitutionAddress": "Xinjiekouwai Street No 19,Beijing,Haidian District,CN,100875",
  "InstitutionName": "BNU MRI Center",
  "InstitutionalDepartmentName": "Department",
  "MRAcquisitionType": "2D",
  "MagneticFieldStrength": 3,
  "Manufacturer": "Siemens",
  "ManufacturersModelName": "TrioTim",
  "MatrixCoilMode": "SENSE",
  "Modality": "MR",
  "NonlinearGradientCorrection": false,
  "PartialFourier": 1,
  "PatientPosition": "HFS",
  "PercentPhaseFOV": 100,
  "PercentSampling": 100,
  "PhaseEncodingDirection": "j-",
  "PhaseEncodingSteps": 64,
  "PhaseResolution": 1,
  "PixelBandwidth": 2520,
  "ProcedureStepDescription": "BNU_cst_2015^Guo.TaoMei",
  "ProtocolName": "ge_func_3x3x4_164",
  "PulseSequenceDetails": "%SiemensSeq%\\ep2d_bold",
  "ReceiveCoilName": "HeadMatrix",
  "ReconMatrixPE": 64,
  "RepetitionTime": 2,
  "SAR": 0.154559,
  "ScanOptions": "FS",
  "ScanningSequence": "EP",
  "SequenceName": "*epfid2d1_64",
  "SequenceVariant": "SK",
  "SeriesDescription": "ge_func_3x3x4_164",
  "SeriesNumber": 3,
  "ShimSetting": [-4527, -19481, -9822, 1100, 9, -617, 242, 65],
  "SliceThickness": 4,
  "SliceTiming": [0, 1.0325, 0.06, 1.095, 0.12, 1.155, 0.1825, 1.215, 0.2425, 1.2775, 0.3025, 1.3375, 0.365, 1.3975, 0.425, 1.46, 0.485, 1.52, 0.5475, 1.58, 0.6075, 1.6425, 0.6675, 1.7025, 0.73, 1.7625, 0.79, 1.825, 0.85, 1.885, 0.9125, 1.945, 0.9725],
  "SoftwareVersions": "syngo MR B17",
  "SpacingBetweenSlices": 4.6,
  "StationName": "MRC35193",
  "TaskName": "LanguageControl",
  "TotalReadoutTime": 0.0289803,
  "TxRefAmp": 321.619,
  "dcmmeta_affine": [
    [-3.1248810291290283, 0.0, -0.04014206305146217, 101.31316375732422],
    [0.0, 3.125, 0.0, -93.50150299072266],
    [-0.027270423248410225, 0.0, 4.599824905395508, -49.784786224365234],
    [0.0, 0.0, 0.0, 1.0]
],
  "dcmmeta_reorient_transform": [
    [0.0, -1.0, 0.0, 63.0],
    [1.0, 0.0, 0.0, 0.0],
    [0.0, 0.0, 1.0, 0.0],
    [0.0, 0.0, 0.0, 1.0]
],
  "dcmmeta_shape": [64, 64, 33, 164],
  "dcmmeta_slice_dim": 2,
  "dcmmeta_version": 0.6,
  "global": {
    "const": {
      "AcquisitionMatrix": [64, 0, 0, 64],
      "AngioFlag": "N",
      "BitsAllocated": 16,
      "BitsStored": 12,
      "Columns": 384,
      "EchoNumbers": 1,
      "EchoTime": 30.0,
      "EchoTrainLength": 1,
      "FlipAngle": 90.0,
      "HighBit": 11,
      "ImageOrientationPatient": [0.99996192306517, 0.0, -0.0087265353836, 0.0, 1.0, 0.0],
      "ImagePositionPatient": [-601.29412561797, -603.37349390984, -45.421518955366],
      "ImageType": [
        "ORIGINAL",
        "PRIMARY",
        "M",
        "ND",
        "MOSAIC"
],
      "ImagedNucleus": "1H",
      "ImagingFrequency": 123.253849,
      "InPlanePhaseEncodingDirection": "COL",
      "MRAcquisitionType": "2D",
      "MagneticFieldStrength": 3.0,
      "Manufacturer": "SIEMENS",
      "ManufacturerModelName": "TrioTim",
      "Modality": "MR",
      "NumberOfAverages": 1.0,
      "NumberOfPhaseEncodingSteps": 64,
      "PercentPhaseFieldOfView": 100.0,
      "PercentSampling": 100.0,
      "PerformedProcedureStepStartTime": "095132.109000",
      "PhotometricInterpretation": "MONOCHROME2",
      "PixelBandwidth": 2520.0,
      "PixelRepresentation": 0,
      "PixelSpacing": [3.125, 3.125],
      "ProtocolName": "ge_func_3x3x4_164",
      "RepetitionTime": 2000.0,
      "Rows": 384,
      "SAR": 0.15455949134088,
      "SamplesPerPixel": 1,
      "ScanOptions": "FS",
      "ScanningSequence": "EP",
      "SequenceName": "*epfid2d1_64",
      "SequenceVariant": "SK",
      "SeriesDescription": "ge_func_3x3x4_164",
      "SeriesNumber": 3,
      "SeriesTime": "100039.187000",
      "SliceLocation": -50.667003906326,
      "SliceThickness": 4.0,
      "SmallestImagePixelValue": 0,
      "SoftwareVersions": "syngo MR B17",
      "SpacingBetweenSlices": 4.6000000592899,
      "SpecificCharacterSet": "ISO_IR 100",
      "StudyID": "1",
      "StudyTime": "095129.984000",
      "TransmitCoilName": "Body",
      "VariableFlipAngleFlag": "N",
      "WindowCenterWidthExplanation": "Algo1",
      "dBdt": 0.0},
    "slices": {}
  },
  "time": {
    "samples": {
      "AcquisitionNumber": [1, 2, 3, 4, 5, 6, 7, 8, 9, 10, 11, 12, 13, 14, 15, 16, 17, 18, 19, 20, 21, 22, 23, 24, 25, 26, 27, 28, 29, 30, 31, 32, 33, 34, 35, 36, 37, 38, 39, 40, 41, 42, 43, 44, 45, 46, 47, 48, 49, 50, 51, 52, 53, 54, 55, 56, 57, 58, 59, 60, 61, 62, 63, 64, 65, 66, 67, 68, 69, 70, 71, 72, 73, 74, 75, 76, 77, 78, 79, 80, 81, 82, 83, 84, 85, 86, 87, 88, 89, 90, 91, 92, 93, 94, 95, 96, 97, 98, 99, 100, 101, 102, 103, 104, 105, 106, 107, 108, 109, 110, 111, 112, 113, 114, 115, 116, 117, 118, 119, 120, 121, 122, 123, 124, 125, 126, 127, 128, 129, 130, 131, 132, 133, 134, 135, 136, 137, 138, 139, 140, 141, 142, 143, 144, 145, 146, 147, 148, 149, 150, 151, 152, 153, 154, 155, 156, 157, 158, 159, 160, 161, 162, 163, 164],
      "AcquisitionTime": ["095956.910000", "095958.917500", "100000.925000", "100002.932500", "100004.940000", "100006.950000", "100008.957500", "100010.965000", "100012.972500", "100014.980000", "100016.990000", "100018.997500", "100021.005000", "100023.012500", "100025.022500", "100027.030000", "100029.037500", "100031.045000", "100033.052500", "100035.062500", "100037.070000", "100039.077500", "100041.085000", "100043.092500", "100045.102500", "100047.110000", "100049.117500", "100051.125000", "100053.132500", "100055.142500", "100057.150000", "100059.157500", "100101.165000", "100103.175000", "100105.182500", "100107.190000", "100109.197500", "100111.205000", "100113.215000", "100115.222500", "100117.230000", "100119.237500", "100121.245000", "100123.255000", "100125.262500", "100127.270000", "100129.277500", "100131.287500", "100133.295000", "100135.302500", "100137.310000", "100139.317500", "100141.327500", "100143.335000", "100145.342500", "100147.350000", "100149.357500", "100151.367500", "100153.375000", "100155.382500", "100157.390000", "100159.400000", "100201.407500", "100203.415000", "100205.422500", "100207.430000", "100209.440000", "100211.447500", "100213.455000", "100215.462500", "100217.470000", "100219.480000", "100221.487500", "100223.495000", "100225.502500", "100227.510000", "100229.520000", "100231.527500", "100233.535000", "100235.542500", "100237.552500", "100239.560000", "100241.567500", "100243.575000", "100245.582500", "100247.592500", "100249.600000", "100251.607500", "100253.615000", "100255.622500", "100257.632500", "100259.640000", "100301.647500", "100303.655000", "100305.665000", "100307.672500", "100309.680000", "100311.687500", "100313.695000", "100315.705000", "100317.712500", "100319.720000", "100321.727500", "100323.735000", "100325.745000", "100327.752500", "100329.760000", "100331.767500", "100333.777500", "100335.785000", "100337.792500", "100339.800000", "100341.807500", "100343.817500", "100345.825000", "100347.832500", "100349.840000", "100351.847500", "100353.857500", "100355.865000", "100357.872500", "100359.880000", "100401.887500", "100403.897500", "100405.905000", "100407.912500", "100409.920000", "100411.930000", "100413.937500", "100415.945000", "100417.952500", "100419.960000", "100421.970000", "100423.977500", "100425.985000", "100427.992500", "100430.000000", "100432.010000", "100434.017500", "100436.025000", "100438.032500", "100440.042500", "100442.050000", "100444.057500", "100446.065000", "100448.072500", "100450.082500", "100452.090000", "100454.097500", "100456.105000", "100458.112500", "100500.122500", "100502.130000", "100504.137500", "100506.145000", "100508.155000", "100510.162500", "100512.170000", "100514.177500", "100516.185000", "100518.195000", "100520.202500", "100522.210000", "100524.217500"],
      "ContentTime": ["100039.203000", "100039.203000", "100039.203000", "100039.203000", "100039.203000", "100039.203000", "100039.203000", "100039.218000", "100039.218000", "100039.218000", "100039.218000", "100039.218000", "100039.234000", "100039.234000", "100039.234000", "100039.234000", "100039.234000", "100039.234000", "100039.234000", "100039.250000", "100039.250000", "100139.187000", "100139.187000", "100139.203000", "100139.203000", "100139.203000", "100139.203000", "100139.218000", "100139.218000", "100139.218000", "100139.218000", "100139.218000", "100139.234000", "100139.234000", "100139.234000", "100139.234000", "100139.234000", "100139.234000", "100139.234000", "100139.234000", "100139.250000", "100139.250000", "100139.250000", "100139.250000", "100139.250000", "100139.250000", "100139.250000", "100139.250000", "100139.250000", "100139.265000", "100219.187000", "100219.187000", "100219.187000", "100219.187000", "100219.203000", "100219.203000", "100219.203000", "100219.203000", "100219.203000", "100219.203000", "100219.203000", "100219.203000", "100219.218000", "100219.218000", "100219.218000", "100219.218000", "100219.218000", "100219.218000", "100219.218000", "100219.218000", "100259.187000", "100259.203000", "100259.203000", "100259.203000", "100259.203000", "100259.203000", "100259.218000", "100259.218000", "100259.218000", "100259.218000", "100259.218000", "100259.218000", "100259.234000", "100259.234000", "100259.234000", "100259.234000", "100259.234000", "100259.234000", "100259.234000", "100259.234000", "100319.187000", "100319.187000", "100319.187000", "100319.203000", "100319.203000", "100319.203000", "100319.203000", "100319.203000", "100319.203000", "100319.203000", "100319.203000", "100359.187000", "100359.187000", "100359.187000", "100359.187000", "100359.203000", "100359.203000", "100359.203000", "100359.203000", "100359.203000", "100359.203000", "100359.203000", "100359.203000", "100359.218000", "100359.218000", "100359.218000", "100359.218000", "100359.218000", "100359.218000", "100359.218000", "100359.218000", "100459.187000", "100459.187000", "100459.187000", "100459.187000", "100459.187000", "100459.203000", "100459.203000", "100459.203000", "100459.203000", "100459.203000", "100459.203000", "100459.203000", "100459.218000", "100459.218000", "100459.218000", "100459.218000", "100459.218000", "100459.218000", "100459.218000", "100459.234000", "100459.234000", "100459.234000", "100459.234000", "100459.234000", "100459.234000", "100459.234000", "100459.234000", "100459.250000", "100459.250000", "100525.156000", "100525.171000", "100525.171000", "100525.171000", "100525.171000", "100525.187000", "100525.187000", "100525.187000", "100525.187000", "100525.187000", "100525.187000", "100525.203000", "100525.203000", "100525.203000"],
      "InstanceCreationTime": ["100039.203000", "100039.203000", "100039.203000", "100039.203000", "100039.203000", "100039.203000", "100039.203000", "100039.218000", "100039.218000", "100039.218000", "100039.218000", "100039.218000", "100039.234000", "100039.234000", "100039.234000", "100039.234000", "100039.234000", "100039.234000", "100039.234000", "100039.250000", "100039.250000", "100139.187000", "100139.187000", "100139.203000", "100139.203000", "100139.203000", "100139.203000", "100139.218000", "100139.218000", "100139.218000", "100139.218000", "100139.218000", "100139.234000", "100139.234000", "100139.234000", "100139.234000", "100139.234000", "100139.234000", "100139.234000", "100139.234000", "100139.250000", "100139.250000", "100139.250000", "100139.250000", "100139.250000", "100139.250000", "100139.250000", "100139.250000", "100139.250000", "100139.265000", "100219.187000", "100219.187000", "100219.187000", "100219.187000", "100219.203000", "100219.203000", "100219.203000", "100219.203000", "100219.203000", "100219.203000", "100219.203000", "100219.203000", "100219.218000", "100219.218000", "100219.218000", "100219.218000", "100219.218000", "100219.218000", "100219.218000", "100219.218000", "100259.187000", "100259.203000", "100259.203000", "100259.203000", "100259.203000", "100259.203000", "100259.218000", "100259.218000", "100259.218000", "100259.218000", "100259.218000", "100259.218000", "100259.234000", "100259.234000", "100259.234000", "100259.234000", "100259.234000", "100259.234000", "100259.234000", "100259.234000", "100319.187000", "100319.187000", "100319.187000", "100319.203000", "100319.203000", "100319.203000", "100319.203000", "100319.203000", "100319.203000", "100319.203000", "100319.203000", "100359.187000", "100359.187000", "100359.187000", "100359.187000", "100359.203000", "100359.203000", "100359.203000", "100359.203000", "100359.203000", "100359.203000", "100359.203000", "100359.203000", "100359.218000", "100359.218000", "100359.218000", "100359.218000", "100359.218000", "100359.218000", "100359.218000", "100359.218000", "100459.187000", "100459.187000", "100459.187000", "100459.187000", "100459.187000", "100459.203000", "100459.203000", "100459.203000", "100459.203000", "100459.203000", "100459.203000", "100459.203000", "100459.218000", "100459.218000", "100459.218000", "100459.218000", "100459.218000", "100459.218000", "100459.218000", "100459.234000", "100459.234000", "100459.234000", "100459.234000", "100459.234000", "100459.234000", "100459.234000", "100459.234000", "100459.250000", "100459.250000", "100525.156000", "100525.171000", "100525.171000", "100525.171000", "100525.171000", "100525.187000", "100525.187000", "100525.187000", "100525.187000", "100525.187000", "100525.187000", "100525.203000", "100525.203000", "100525.203000"],
      "InstanceNumber": [1, 2, 3, 4, 5, 6, 7, 8, 9, 10, 11, 12, 13, 14, 15, 16, 17, 18, 19, 20, 21, 22, 23, 24, 25, 26, 27, 28, 29, 30, 31, 32, 33, 34, 35, 36, 37, 38, 39, 40, 41, 42, 43, 44, 45, 46, 47, 48, 49, 50, 51, 52, 53, 54, 55, 56, 57, 58, 59, 60, 61, 62, 63, 64, 65, 66, 67, 68, 69, 70, 71, 72, 73, 74, 75, 76, 77, 78, 79, 80, 81, 82, 83, 84, 85, 86, 87, 88, 89, 90, 91, 92, 93, 94, 95, 96, 97, 98, 99, 100, 101, 102, 103, 104, 105, 106, 107, 108, 109, 110, 111, 112, 113, 114, 115, 116, 117, 118, 119, 120, 121, 122, 123, 124, 125, 126, 127, 128, 129, 130, 131, 132, 133, 134, 135, 136, 137, 138, 139, 140, 141, 142, 143, 144, 145, 146, 147, 148, 149, 150, 151, 152, 153, 154, 155, 156, 157, 158, 159, 160, 161, 162, 163, 164],
      "LargestImagePixelValue": [2006, 1924, 1894, 1884, 1886, 1886, 1883, 1908, 1880, 1899, 1878, 1881, 1906, 1886, 1893, 1870, 1883, 1887, 1884, 1871, 1880, 1885, 1889, 1888, 1874, 1882, 1875, 1881, 1875, 1885, 1892, 1877, 1854, 1886, 1868, 1880, 1909, 1913, 1879, 1879, 1872, 1900, 1877, 1886, 1872, 1881, 1886, 1879, 1877, 1876, 1872, 1878, 1886, 1869, 1869, 1886, 1877, 1878, 1881, 1905, 1932, 1883, 1884, 1884, 1882, 1880, 1876, 1885, 1864, 1864, 1880, 1874, 1887, 1883, 1872, 1876, 1865, 1877, 1879, 1888, 1885, 1918, 1880, 1880, 1887, 1895, 1878, 1888, 1880, 1865, 1875, 1930, 1878, 1887, 1887, 1924, 1932, 1884, 1891, 1881, 1903, 1888, 1878, 1889, 1909, 1880, 1892, 1880, 1896, 1895, 1891, 1909, 1905, 1934, 1867, 1891, 1871, 1886, 1892, 1881, 1906, 1868, 1892, 1872, 1891, 1887, 1875, 1923, 1880, 1877, 1881, 1891, 1874, 1868, 1875, 1906, 1888, 1896, 1879, 1910, 1885, 1900, 1884, 1885, 1946, 1903, 1879, 1871, 1873, 1891, 1872, 1873, 1878, 1890, 1878, 1867, 1886, 1885, 1880, 1889, 1885, 1877, 1879, 1869],
      "WindowCenter": [720.0, 718.0, 717.0, 717.0, 717.0, 716.0, 716.0, 716.0, 716.0, 716.0, 715.0, 714.0, 714.0, 715.0, 716.0, 716.0, 714.0, 714.0, 714.0, 714.0, 715.0, 716.0, 715.0, 716.0, 716.0, 716.0, 715.0, 715.0, 716.0, 717.0, 717.0, 716.0, 716.0, 715.0, 715.0, 714.0, 715.0, 715.0, 715.0, 715.0, 716.0, 717.0, 717.0, 716.0, 716.0, 715.0, 715.0, 715.0, 715.0, 715.0, 715.0, 717.0, 716.0, 716.0, 717.0, 717.0, 717.0, 717.0, 716.0, 716.0, 716.0, 716.0, 716.0, 715.0, 715.0, 716.0, 717.0, 717.0, 716.0, 717.0, 717.0, 716.0, 716.0, 717.0, 718.0, 717.0, 716.0, 717.0, 717.0, 716.0, 716.0, 717.0, 716.0, 715.0, 715.0, 716.0, 716.0, 717.0, 716.0, 715.0, 714.0, 715.0, 715.0, 715.0, 715.0, 716.0, 716.0, 716.0, 715.0, 716.0, 717.0, 717.0, 715.0, 715.0, 716.0, 717.0, 717.0, 717.0, 717.0, 717.0, 717.0, 717.0, 717.0, 717.0, 716.0, 716.0, 717.0, 717.0, 716.0, 716.0, 717.0, 716.0, 717.0, 717.0, 718.0, 717.0, 716.0, 716.0, 716.0, 716.0, 717.0, 717.0, 717.0, 716.0, 716.0, 717.0, 718.0, 717.0, 717.0, 717.0, 716.0, 716.0, 716.0, 716.0, 717.0, 717.0, 717.0, 717.0, 717.0, 717.0, 717.0, 718.0, 718.0, 717.0, 716.0, 717.0, 717.0, 717.0, 716.0, 717.0, 717.0, 718.0, 719.0, 718.0],
      "WindowWidth": [1575.0, 1568.0, 1567.0, 1567.0, 1565.0, 1563.0, 1562.0, 1562.0, 1562.0, 1562.0, 1560.0, 1558.0, 1557.0, 1560.0, 1563.0, 1562.0, 1557.0, 1557.0, 1556.0, 1558.0, 1561.0, 1563.0, 1561.0, 1563.0, 1564.0, 1564.0, 1561.0, 1560.0, 1563.0, 1564.0, 1565.0, 1562.0, 1561.0, 1560.0, 1558.0, 1558.0, 1560.0, 1561.0, 1559.0, 1560.0, 1562.0, 1565.0, 1564.0, 1564.0, 1561.0, 1561.0, 1560.0, 1561.0, 1561.0, 1559.0, 1561.0, 1565.0, 1564.0, 1564.0, 1566.0, 1565.0, 1566.0, 1564.0, 1563.0, 1562.0, 1564.0, 1563.0, 1561.0, 1560.0, 1561.0, 1563.0, 1566.0, 1566.0, 1564.0, 1564.0, 1565.0, 1564.0, 1564.0, 1566.0, 1568.0, 1566.0, 1563.0, 1565.0, 1565.0, 1563.0, 1563.0, 1565.0, 1563.0, 1560.0, 1560.0, 1561.0, 1564.0, 1565.0, 1563.0, 1560.0, 1558.0, 1559.0, 1559.0, 1561.0, 1561.0, 1562.0, 1562.0, 1562.0, 1561.0, 1563.0, 1566.0, 1565.0, 1559.0, 1558.0, 1563.0, 1564.0, 1564.0, 1566.0, 1565.0, 1564.0, 1566.0, 1566.0, 1565.0, 1565.0, 1562.0, 1563.0, 1565.0, 1564.0, 1564.0, 1562.0, 1565.0, 1563.0, 1564.0, 1565.0, 1568.0, 1567.0, 1562.0, 1562.0, 1562.0, 1563.0, 1567.0, 1566.0, 1565.0, 1562.0, 1561.0, 1564.0, 1567.0, 1566.0, 1567.0, 1566.0, 1563.0, 1562.0, 1563.0, 1563.0, 1566.0, 1566.0, 1566.0, 1566.0, 1564.0, 1565.0, 1565.0, 1567.0, 1567.0, 1566.0, 1564.0, 1564.0, 1565.0, 1565.0, 1563.0, 1565.0, 1565.0, 1569.0, 1570.0, 1569.0]
    },
    "slices": {}
  }
}