{
  "AcquisitionMatrixPE": 64,
  "AcquisitionNumber": 1,
  "AcquisitionTime": "09:53:54.410000",
  "BandwidthPerPixelPhaseEncode": 33.967,
  "BaseResolution": 64,
  "CoilCombinationMethod": "Sum of Squares",
  "CoilString": "C:HEA;HEP",
  "ConversionSoftware": "dcm2niix",
  "ConversionSoftwareVersion": "v1.0.20220720",
  "DerivedVendorReportedEchoSpacing": 0.000460005,
  "DeviceSerialNumber": "35193",
  "DwellTime": 3.1e-06,
  "EchoTime": 0.03,
  "EffectiveEchoSpacing": 0.000460005,
  "FlipAngle": 90,
  "HeudiconvVersion": "1.1.6",
  "ImageOrientationPatientDICOM": [0.996808, -0.0471065, -0.0644607, 0.0470083, 0.99889, -0.00303989],
  "ImageOrientationText": "Tra>Sag(-3.7)",
  "ImageType": [
    "ORIGINAL",
    "PRIMARY",
    "M",
    "ND",
    "MOSAIC"
],
  "ImagingFrequency": 123.254,
  "InPlanePhaseEncodingDirectionDICOM": "COL",
  "InstitutionAddress": "Xinjiekouwai Street No 19,Beijing,Haidian District,CN,100875",
  "InstitutionName": "BNU MRI Center",
  "InstitutionalDepartmentName": "Department",
  "MRAcquisitionType": "2D",
  "MagneticFieldStrength": 3,
  "Manufacturer": "Siemens",
  "ManufacturersModelName": "TrioTim",
  "MatrixCoilMode": "SENSE",
  "Modality": "MR",
  "NonlinearGradientCorrection": false,
  "PartialFourier": 1,
  "PatientPosition": "HFS",
  "PercentPhaseFOV": 100,
  "PercentSampling": 100,
  "PhaseEncodingDirection": "j-",
  "PhaseEncodingSteps": 64,
  "PhaseResolution": 1,
  "PixelBandwidth": 2520,
  "ProcedureStepDescription": "BNU_cst_2015^Guo.TaoMei",
  "ProtocolName": "ge_func_3x3x4_164",
  "PulseSequenceDetails": "%SiemensSeq%\\ep2d_bold",
  "ReceiveCoilName": "HeadMatrix",
  "ReconMatrixPE": 64,
  "RepetitionTime": 2,
  "SAR": 0.122984,
  "ScanOptions": "FS",
  "ScanningSequence": "EP",
  "SequenceName": "*epfid2d1_64",
  "SequenceVariant": "SK",
  "SeriesDescription": "ge_func_3x3x4_164",
  "SeriesNumber": 3,
  "ShimSetting": [-4523, -19450, -9798, 1115, -262, -377, 70, 110],
  "SliceThickness": 4,
  "SliceTiming": [0, 1.0325, 0.06, 1.095, 0.12, 1.155, 0.1825, 1.215, 0.2425, 1.2775, 0.3025, 1.3375, 0.365, 1.3975, 0.425, 1.46, 0.485, 1.52, 0.5475, 1.58, 0.6075, 1.6425, 0.6675, 1.7025, 0.73, 1.7625, 0.79, 1.825, 0.85, 1.885, 0.9125, 1.945, 0.9725],
  "SoftwareVersions": "syngo MR B17",
  "SpacingBetweenSlices": 4.6,
  "StationName": "MRC35193",
  "TaskName": "LanguageControl",
  "TotalReadoutTime": 0.0289803,
  "TxRefAmp": 335.492,
  "dcmmeta_affine": [
    [-3.1150243282318115, 0.14690083265304565, -0.2968486249446869, 87.05715942382812],
    [0.14720766246318817, 3.121530771255493, 9.62697588313688e-10, -78.53834533691406],
    [-0.20143958926200867, 0.009499650448560715, 4.59041166305542, -50.42754364013672],
    [0.0, 0.0, 0.0, 1.0]
],
  "dcmmeta_reorient_transform": [
    [0.0, -1.0, 0.0, 63.0],
    [1.0, 0.0, 0.0, 0.0],
    [0.0, 0.0, 1.0, 0.0],
    [0.0, 0.0, 0.0, 1.0]
],
  "dcmmeta_shape": [64, 64, 33, 164],
  "dcmmeta_slice_dim": 2,
  "dcmmeta_version": 0.6,
  "global": {
    "const": {
      "AcquisitionMatrix": [64, 0, 0, 64],
      "AngioFlag": "N",
      "BitsAllocated": 16,
      "BitsStored": 12,
      "Columns": 384,
      "EchoNumbers": 1,
      "EchoTime": 30.0,
      "EchoTrainLength": 1,
      "FlipAngle": 90.0,
      "HighBit": 11,
      "ImageOrientationPatient": [0.9968078069774, -0.0471064540895, -0.0644606696523, 0.04700826626981, 0.99888987480258, -0.003039888023],
      "ImagePositionPatient": [-618.21994466091, -594.00981072863, -16.078786030807],
      "ImageType": [
        "ORIGINAL",
        "PRIMARY",
        "M",
        "ND",
        "MOSAIC"
],
      "ImagedNucleus": "1H",
      "ImagingFrequency": 123.253622,
      "InPlanePhaseEncodingDirection": "COL",
      "MRAcquisitionType": "2D",
      "MagneticFieldStrength": 3.0,
      "Manufacturer": "SIEMENS",
      "ManufacturerModelName": "TrioTim",
      "Modality": "MR",
      "NumberOfAverages": 1.0,
      "NumberOfPhaseEncodingSteps": 64,
      "PercentPhaseFieldOfView": 100.0,
      "PercentSampling": 100.0,
      "PerformedProcedureStepStartTime": "094503.843000",
      "PhotometricInterpretation": "MONOCHROME2",
      "PixelBandwidth": 2520.0,
      "PixelRepresentation": 0,
      "PixelSpacing": [3.125, 3.125],
      "ProtocolName": "ge_func_3x3x4_164",
      "RepetitionTime": 2000.0,
      "Rows": 384,
      "SAR": 0.12298397841859,
      "SamplesPerPixel": 1,
      "ScanOptions": "FS",
      "ScanningSequence": "EP",
      "SequenceName": "*epfid2d1_64",
      "SequenceVariant": "SK",
      "SeriesDescription": "ge_func_3x3x4_164",
      "SeriesNumber": 3,
      "SeriesTime": "095439.625000",
      "SliceLocation": -55.940431820146,
      "SliceThickness": 4.0,
      "SmallestImagePixelValue": 0,
      "SoftwareVersions": "syngo MR B17",
      "SpacingBetweenSlices": 4.599999938792,
      "SpecificCharacterSet": "ISO_IR 100",
      "StudyID": "1",
      "StudyTime": "094502.375000",
      "TransmitCoilName": "Body",
      "VariableFlipAngleFlag": "N",
      "WindowCenterWidthExplanation": "Algo1",
      "dBdt": 0.0},
    "slices": {}
  },
  "time": {
    "samples": {
      "AcquisitionNumber": [1, 2, 3, 4, 5, 6, 7, 8, 9, 10, 11, 12, 13, 14, 15, 16, 17, 18, 19, 20, 21, 22, 23, 24, 25, 26, 27, 28, 29, 30, 31, 32, 33, 34, 35, 36, 37, 38, 39, 40, 41, 42, 43, 44, 45, 46, 47, 48, 49, 50, 51, 52, 53, 54, 55, 56, 57, 58, 59, 60, 61, 62, 63, 64, 65, 66, 67, 68, 69, 70, 71, 72, 73, 74, 75, 76, 77, 78, 79, 80, 81, 82, 83, 84, 85, 86, 87, 88, 89, 90, 91, 92, 93, 94, 95, 96, 97, 98, 99, 100, 101, 102, 103, 104, 105, 106, 107, 108, 109, 110, 111, 112, 113, 114, 115, 116, 117, 118, 119, 120, 121, 122, 123, 124, 125, 126, 127, 128, 129, 130, 131, 132, 133, 134, 135, 136, 137, 138, 139, 140, 141, 142, 143, 144, 145, 146, 147, 148, 149, 150, 151, 152, 153, 154, 155, 156, 157, 158, 159, 160, 161, 162, 163, 164],
      "AcquisitionTime": ["095354.410000", "095356.417500", "095358.425000", "095400.432500", "095402.440000", "095404.450000", "095406.457500", "095408.465000", "095410.472500", "095412.480000", "095414.490000", "095416.497500", "095418.505000", "095420.512500", "095422.522500", "095424.530000", "095426.537500", "095428.545000", "095430.552500", "095432.562500", "095434.570000", "095436.577500", "095438.585000", "095440.592500", "095442.602500", "095444.610000", "095446.617500", "095448.625000", "095450.635000", "095452.642500", "095454.650000", "095456.657500", "095458.665000", "095500.675000", "095502.682500", "095504.690000", "095506.697500", "095508.705000", "095510.715000", "095512.722500", "095514.730000", "095516.737500", "095518.747500", "095520.755000", "095522.762500", "095524.770000", "095526.777500", "095528.787500", "095530.795000", "095532.802500", "095534.810000", "095536.817500", "095538.827500", "095540.835000", "095542.842500", "095544.850000", "095546.857500", "095548.867500", "095550.875000", "095552.882500", "095554.890000", "095556.900000", "095558.907500", "095600.915000", "095602.922500", "095604.930000", "095606.940000", "095608.947500", "095610.955000", "095612.962500", "095614.970000", "095616.980000", "095618.987500", "095620.995000", "095623.002500", "095625.012500", "095627.020000", "095629.027500", "095631.035000", "095633.042500", "095635.052500", "095637.060000", "095639.067500", "095641.075000", "095643.082500", "095645.092500", "095647.100000", "095649.107500", "095651.115000", "095653.125000", "095655.132500", "095657.140000", "095659.147500", "095701.155000", "095703.165000", "095705.172500", "095707.180000", "095709.187500", "095711.195000", "095713.205000", "095715.212500", "095717.220000", "095719.227500", "095721.237500", "095723.245000", "095725.252500", "095727.260000", "095729.267500", "095731.277500", "095733.285000", "095735.292500", "095737.300000", "095739.307500", "095741.317500", "095743.325000", "095745.332500", "095747.340000", "095749.347500", "095751.357500", "095753.365000", "095755.372500", "095757.380000", "095759.390000", "095801.397500", "095803.405000", "095805.412500", "095807.420000", "095809.430000", "095811.437500", "095813.445000", "095815.452500", "095817.460000", "095819.470000", "095821.477500", "095823.485000", "095825.492500", "095827.502500", "095829.510000", "095831.517500", "095833.525000", "095835.532500", "095837.542500", "095839.550000", "095841.557500", "095843.565000", "095845.572500", "095847.582500", "095849.590000", "095851.597500", "095853.605000", "095855.615000", "095857.622500", "095859.630000", "095901.637500", "095903.645000", "095905.655000", "095907.662500", "095909.670000", "095911.677500", "095913.685000", "095915.695000", "095917.702500", "095919.710000", "095921.717500"],
      "ContentTime": ["095439.625000", "095439.625000", "095439.640000", "095439.640000", "095439.640000", "095439.640000", "095439.656000", "095439.656000", "095439.656000", "095439.656000", "095439.656000", "095439.656000", "095439.656000", "095439.656000", "095439.671000", "095439.671000", "095439.671000", "095439.671000", "095439.671000", "095439.671000", "095439.671000", "095519.625000", "095519.625000", "095519.625000", "095519.625000", "095519.640000", "095519.640000", "095519.640000", "095519.640000", "095519.640000", "095519.640000", "095519.640000", "095519.640000", "095519.656000", "095519.656000", "095519.656000", "095519.656000", "095519.656000", "095519.656000", "095519.656000", "095519.656000", "095559.625000", "095559.625000", "095559.625000", "095559.625000", "095559.625000", "095559.625000", "095559.640000", "095559.640000", "095559.640000", "095559.640000", "095559.640000", "095559.656000", "095559.656000", "095559.656000", "095559.656000", "095559.656000", "095559.656000", "095559.656000", "095559.656000", "095559.671000", "095639.625000", "095639.625000", "095639.625000", "095639.640000", "095639.640000", "095639.640000", "095639.640000", "095639.640000", "095639.640000", "095639.656000", "095639.656000", "095639.656000", "095639.656000", "095639.656000", "095639.656000", "095639.656000", "095639.671000", "095639.687000", "095639.687000", "095639.687000", "095719.625000", "095719.625000", "095719.625000", "095719.625000", "095719.640000", "095719.640000", "095719.640000", "095719.640000", "095719.640000", "095719.640000", "095719.640000", "095719.656000", "095719.656000", "095719.656000", "095719.656000", "095719.656000", "095719.671000", "095719.671000", "095719.671000", "095719.671000", "095759.625000", "095759.625000", "095759.625000", "095759.625000", "095759.625000", "095759.625000", "095759.640000", "095759.640000", "095759.640000", "095759.640000", "095759.640000", "095759.640000", "095759.640000", "095759.640000", "095759.656000", "095759.656000", "095759.656000", "095759.656000", "095759.656000", "095759.656000", "095839.625000", "095839.625000", "095839.625000", "095839.640000", "095839.640000", "095839.640000", "095839.656000", "095839.656000", "095839.656000", "095839.656000", "095839.656000", "095839.656000", "095839.656000", "095839.656000", "095839.671000", "095839.671000", "095839.671000", "095839.671000", "095839.671000", "095839.671000", "095919.625000", "095919.625000", "095919.625000", "095919.625000", "095919.625000", "095919.625000", "095919.640000", "095919.640000", "095919.640000", "095919.640000", "095919.640000", "095919.640000", "095919.656000", "095919.656000", "095919.656000", "095919.656000", "095919.656000", "095919.656000", "095919.671000", "095919.671000", "095923.984000", "095923.984000", "095924.000000"],
      "InstanceCreationTime": ["095439.625000", "095439.625000", "095439.640000", "095439.640000", "095439.640000", "095439.640000", "095439.656000", "095439.656000", "095439.656000", "095439.656000", "095439.656000", "095439.656000", "095439.656000", "095439.656000", "095439.671000", "095439.671000", "095439.671000", "095439.671000", "095439.671000", "095439.671000", "095439.671000", "095519.625000", "095519.625000", "095519.625000", "095519.625000", "095519.640000", "095519.640000", "095519.640000", "095519.640000", "095519.640000", "095519.640000", "095519.640000", "095519.640000", "095519.656000", "095519.656000", "095519.656000", "095519.656000", "095519.656000", "095519.656000", "095519.656000", "095519.656000", "095559.625000", "095559.625000", "095559.625000", "095559.625000", "095559.625000", "095559.625000", "095559.640000", "095559.640000", "095559.640000", "095559.640000", "095559.640000", "095559.656000", "095559.656000", "095559.656000", "095559.656000", "095559.656000", "095559.656000", "095559.656000", "095559.656000", "095559.671000", "095639.625000", "095639.625000", "095639.625000", "095639.640000", "095639.640000", "095639.640000", "095639.640000", "095639.640000", "095639.640000", "095639.656000", "095639.656000", "095639.656000", "095639.656000", "095639.656000", "095639.656000", "095639.656000", "095639.671000", "095639.687000", "095639.687000", "095639.687000", "095719.625000", "095719.625000", "095719.625000", "095719.625000", "095719.640000", "095719.640000", "095719.640000", "095719.640000", "095719.640000", "095719.640000", "095719.640000", "095719.656000", "095719.656000", "095719.656000", "095719.656000", "095719.656000", "095719.671000", "095719.671000", "095719.671000", "095719.671000", "095759.625000", "095759.625000", "095759.625000", "095759.625000", "095759.625000", "095759.625000", "095759.640000", "095759.640000", "095759.640000", "095759.640000", "095759.640000", "095759.640000", "095759.640000", "095759.640000", "095759.656000", "095759.656000", "095759.656000", "095759.656000", "095759.656000", "095759.656000", "095839.625000", "095839.625000", "095839.625000", "095839.640000", "095839.640000", "095839.640000", "095839.656000", "095839.656000", "095839.656000", "095839.656000", "095839.656000", "095839.656000", "095839.656000", "095839.656000", "095839.671000", "095839.671000", "095839.671000", "095839.671000", "095839.671000", "095839.671000", "095919.625000", "095919.625000", "095919.625000", "095919.625000", "095919.625000", "095919.625000", "095919.640000", "095919.640000", "095919.640000", "095919.640000", "095919.640000", "095919.640000", "095919.656000", "095919.656000", "095919.656000", "095919.656000", "095919.656000", "095919.656000", "095919.671000", "095919.671000", "095923.984000", "095923.984000", "095924.000000"],
      "InstanceNumber": [1, 2, 3, 4, 5, 6, 7, 8, 9, 10, 11, 12, 13, 14, 15, 16, 17, 18, 19, 20, 21, 22, 23, 24, 25, 26, 27, 28, 29, 30, 31, 32, 33, 34, 35, 36, 37, 38, 39, 40, 41, 42, 43, 44, 45, 46, 47, 48, 49, 50, 51, 52, 53, 54, 55, 56, 57, 58, 59, 60, 61, 62, 63, 64, 65, 66, 67, 68, 69, 70, 71, 72, 73, 74, 75, 76, 77, 78, 79, 80, 81, 82, 83, 84, 85, 86, 87, 88, 89, 90, 91, 92, 93, 94, 95, 96, 97, 98, 99, 100, 101, 102, 103, 104, 105, 106, 107, 108, 109, 110, 111, 112, 113, 114, 115, 116, 117, 118, 119, 120, 121, 122, 123, 124, 125, 126, 127, 128, 129, 130, 131, 132, 133, 134, 135, 136, 137, 138, 139, 140, 141, 142, 143, 144, 145, 146, 147, 148, 149, 150, 151, 152, 153, 154, 155, 156, 157, 158, 159, 160, 161, 162, 163, 164],
      "LargestImagePixelValue": [2152, 1994, 1990, 1981, 2007, 1989, 1991, 2047, 2011, 1989, 2024, 1981, 1975, 1997, 2024, 2012, 2008, 1991, 1988, 1988, 1994, 1966, 1994, 1978, 1995, 1996, 1979, 1995, 1983, 1987, 1990, 2000, 1993, 1988, 2006, 2039, 1997, 1996, 2006, 2017, 2022, 2024, 2038, 2106, 2018, 2069, 2081, 2067, 2088, 2086, 2094, 2077, 2084, 2076, 2043, 2074, 2067, 2087, 2114, 2159, 2121, 2069, 2103, 2095, 2093, 2082, 2093, 2080, 2089, 2069, 2098, 2076, 2074, 2072, 2077, 2070, 2100, 2081, 2068, 2081, 2090, 2077, 2082, 2080, 2103, 2086, 2101, 2093, 2116, 2070, 2088, 2094, 2071, 2107, 2078, 2106, 2074, 2096, 2107, 2107, 2103, 2121, 2098, 2100, 2095, 2114, 2109, 2109, 2094, 2127, 2103, 2092, 2137, 2095, 2109, 2092, 2082, 2122, 2110, 2136, 2096, 2107, 2100, 2096, 2102, 2099, 2098, 2112, 2120, 2118, 2093, 2088, 2123, 2119, 2085, 2104, 2080, 2106, 2100, 2111, 2091, 2098, 2101, 2091, 2092, 2099, 2110, 2087, 2076, 2080, 2081, 2079, 2080, 2097, 2079, 2075, 2074, 2064, 2086, 2045, 2084, 2056, 2058, 2061],
      "WindowCenter": [750.0, 748.0, 748.0, 749.0, 748.0, 747.0, 747.0, 748.0, 748.0, 748.0, 748.0, 747.0, 747.0, 747.0, 748.0, 748.0, 748.0, 748.0, 747.0, 746.0, 746.0, 746.0, 747.0, 747.0, 748.0, 748.0, 748.0, 748.0, 748.0, 749.0, 749.0, 749.0, 749.0, 749.0, 749.0, 749.0, 749.0, 748.0, 748.0, 748.0, 748.0, 748.0, 750.0, 749.0, 748.0, 747.0, 747.0, 747.0, 748.0, 747.0, 747.0, 748.0, 748.0, 748.0, 747.0, 748.0, 748.0, 748.0, 748.0, 748.0, 748.0, 749.0, 749.0, 748.0, 747.0, 747.0, 748.0, 748.0, 747.0, 748.0, 749.0, 749.0, 749.0, 749.0, 749.0, 749.0, 749.0, 750.0, 748.0, 749.0, 749.0, 749.0, 748.0, 748.0, 748.0, 748.0, 748.0, 748.0, 748.0, 748.0, 749.0, 749.0, 749.0, 749.0, 749.0, 749.0, 749.0, 748.0, 747.0, 747.0, 747.0, 748.0, 748.0, 748.0, 747.0, 747.0, 748.0, 749.0, 750.0, 749.0, 749.0, 748.0, 748.0, 748.0, 749.0, 748.0, 748.0, 749.0, 749.0, 749.0, 749.0, 748.0, 748.0, 748.0, 747.0, 748.0, 748.0, 748.0, 748.0, 748.0, 748.0, 749.0, 749.0, 748.0, 747.0, 748.0, 748.0, 748.0, 748.0, 748.0, 748.0, 749.0, 748.0, 747.0, 748.0, 748.0, 748.0, 747.0, 747.0, 748.0, 750.0, 749.0, 748.0, 749.0, 749.0, 749.0, 749.0, 749.0, 749.0, 749.0, 749.0, 750.0, 750.0, 750.0],
      "WindowWidth": [1676.0, 1669.0, 1670.0, 1673.0, 1670.0, 1667.0, 1667.0, 1669.0, 1669.0, 1668.0, 1669.0, 1668.0, 1668.0, 1667.0, 1670.0, 1670.0, 1670.0, 1670.0, 1667.0, 1665.0, 1664.0, 1664.0, 1668.0, 1668.0, 1670.0, 1670.0, 1670.0, 1671.0, 1672.0, 1673.0, 1672.0, 1673.0, 1672.0, 1672.0, 1673.0, 1673.0, 1672.0, 1670.0, 1671.0, 1671.0, 1670.0, 1671.0, 1676.0, 1676.0, 1669.0, 1669.0, 1667.0, 1669.0, 1671.0, 1668.0, 1669.0, 1671.0, 1670.0, 1670.0, 1669.0, 1670.0, 1671.0, 1670.0, 1669.0, 1672.0, 1671.0, 1674.0, 1674.0, 1671.0, 1668.0, 1669.0, 1670.0, 1669.0, 1669.0, 1670.0, 1673.0, 1674.0, 1674.0, 1674.0, 1675.0, 1673.0, 1675.0, 1676.0, 1672.0, 1674.0, 1674.0, 1672.0, 1671.0, 1671.0, 1671.0, 1671.0, 1671.0, 1672.0, 1673.0, 1672.0, 1672.0, 1675.0, 1675.0, 1674.0, 1673.0, 1674.0, 1672.0, 1672.0, 1668.0, 1667.0, 1667.0, 1669.0, 1672.0, 1670.0, 1667.0, 1666.0, 1671.0, 1674.0, 1676.0, 1675.0, 1672.0, 1670.0, 1671.0, 1671.0, 1672.0, 1671.0, 1671.0, 1673.0, 1673.0, 1674.0, 1673.0, 1672.0, 1671.0, 1671.0, 1668.0, 1669.0, 1670.0, 1672.0, 1671.0, 1671.0, 1672.0, 1674.0, 1673.0, 1670.0, 1668.0, 1669.0, 1670.0, 1672.0, 1670.0, 1670.0, 1671.0, 1673.0, 1670.0, 1668.0, 1670.0, 1672.0, 1670.0, 1667.0, 1668.0, 1673.0, 1676.0, 1673.0, 1671.0, 1672.0, 1674.0, 1674.0, 1674.0, 1675.0, 1675.0, 1674.0, 1674.0, 1675.0, 1676.0, 1676.0]
    },
    "slices": {}
  }
}