{
  "AcquisitionMatrixPE": 64,
  "AcquisitionNumber": 1,
  "AcquisitionTime": "09:16:44.897500",
  "BandwidthPerPixelPhaseEncode": 33.967,
  "BaseResolution": 64,
  "CoilCombinationMethod": "Sum of Squares",
  "CoilString": "C:HEA;HEP",
  "ConversionSoftware": "dcm2niix",
  "ConversionSoftwareVersion": "v1.0.20220720",
  "DerivedVendorReportedEchoSpacing": 0.000460005,
  "DeviceSerialNumber": "35193",
  "DwellTime": 3.1e-06,
  "EchoTime": 0.03,
  "EffectiveEchoSpacing": 0.000460005,
  "FlipAngle": 90,
  "HeudiconvVersion": "1.1.6",
  "ImageOrientationPatientDICOM": [0.99914, 0.0104717, -0.0401296, -0.0104633, 0.999945, 0.000420252],
  "ImageOrientationText": "Tra>Sag(-2.3)",
  "ImageType": [
    "ORIGINAL",
    "PRIMARY",
    "M",
    "ND",
    "MOSAIC"
],
  "ImagingFrequency": 123.254,
  "InPlanePhaseEncodingDirectionDICOM": "COL",
  "InstitutionAddress": "Xinjiekouwai Street No 19,Beijing,Haidian District,CN,100875",
  "InstitutionName": "Beijing Normal Universtiy/5777c4/",
  "InstitutionalDepartmentName": "Department",
  "MRAcquisitionType": "2D",
  "MagneticFieldStrength": 3,
  "Manufacturer": "Siemens",
  "ManufacturersModelName": "TrioTim",
  "MatrixCoilMode": "SENSE",
  "Modality": "MR",
  "NonlinearGradientCorrection": false,
  "PartialFourier": 1,
  "PatientPosition": "HFS",
  "PercentPhaseFOV": 100,
  "PercentSampling": 100,
  "PhaseEncodingDirection": "j-",
  "PhaseEncodingSteps": 64,
  "PhaseResolution": 1,
  "PixelBandwidth": 2520,
  "ProcedureStepDescription": "BNU_cst_2015^Guo.TaoMei",
  "ProtocolName": "ge_func_3x3x4_164",
  "PulseSequenceDetails": "%SiemensSeq%\\ep2d_bold",
  "ReceiveCoilName": "HeadMatrix",
  "ReconMatrixPE": 64,
  "RepetitionTime": 2,
  "SAR": 0.133713,
  "ScanOptions": "FS",
  "ScanningSequence": "EP",
  "SequenceName": "*epfid2d1_64",
  "SequenceVariant": "SK",
  "SeriesDescription": "ge_func_3x3x4_164",
  "SeriesNumber": 4,
  "ShimSetting": [-4527, -19466, -9840, 1197, -120, -696, -175, 48],
  "SliceThickness": 4,
  "SliceTiming": [0, 1.035, 0.0625, 1.095, 0.1225, 1.1575, 0.1825, 1.2175, 0.245, 1.2775, 0.305, 1.34, 0.365, 1.4, 0.4275, 1.46, 0.4875, 1.5225, 0.5475, 1.5825, 0.61, 1.6425, 0.67, 1.705, 0.73, 1.765, 0.7925, 1.825, 0.8525, 1.8875, 0.9125, 1.9475, 0.975],
  "SoftwareVersions": "syngo MR B17",
  "SpacingBetweenSlices": 4.6,
  "StationName": "MRC35193",
  "TaskName": "CognitiveControl",
  "TotalReadoutTime": 0.0289803,
  "TxRefAmp": 322.342,
  "dcmmeta_affine": [
    [-3.1223113536834717, -0.032697852700948715, -0.18460623919963837, 108.60418701171875],
    [-0.03272421658039093, 3.124828577041626, 7.407047419860646e-09, -83.67793273925781],
    [-0.1254049688577652, -0.0013132864842191339, 4.596293926239014, -60.71595001220703],
    [0.0, 0.0, 0.0, 1.0]
],
  "dcmmeta_reorient_transform": [
    [0.0, -1.0, 0.0, 63.0],
    [1.0, 0.0, 0.0, 0.0],
    [0.0, 0.0, 1.0, 0.0],
    [0.0, 0.0, 0.0, 1.0]
],
  "dcmmeta_shape": [64, 64, 33, 164],
  "dcmmeta_slice_dim": 2,
  "dcmmeta_version": 0.6,
  "global": {
    "const": {
      "AcquisitionMatrix": [64, 0, 0, 64],
      "AngioFlag": "N",
      "BitsAllocated": 16,
      "BitsStored": 12,
      "Columns": 384,
      "EchoNumbers": 1,
      "EchoTime": 30.0,
      "EchoTrainLength": 1,
      "FlipAngle": 90.0,
      "HighBit": 11,
      "ImageOrientationPatient": [0.99913960902473, 0.01047174876991, -0.040129592019, -0.0104633126133, 0.99994516973567, 0.0004202516573],
      "ImagePositionPatient": [-600.88236924316, -618.39472908339, -40.944018585734],
      "ImageType": [
        "ORIGINAL",
        "PRIMARY",
        "M",
        "ND",
        "MOSAIC"
],
      "ImagedNucleus": "1H",
      "ImagingFrequency": 123.253876,
      "InPlanePhaseEncodingDirection": "COL",
      "MRAcquisitionType": "2D",
      "MagneticFieldStrength": 3.0,
      "Manufacturer": "SIEMENS",
      "ManufacturerModelName": "TrioTim",
      "Modality": "MR",
      "NumberOfAverages": 1.0,
      "NumberOfPhaseEncodingSteps": 64,
      "PercentPhaseFieldOfView": 100.0,
      "PercentSampling": 100.0,
      "PerformedProcedureStepStartTime": "084901.437000",
      "PhotometricInterpretation": "MONOCHROME2",
      "PixelBandwidth": 2520.0,
      "PixelRepresentation": 0,
      "PixelSpacing": [3.125, 3.125],
      "ProtocolName": "ge_func_3x3x4_164",
      "RepetitionTime": 2000.0,
      "Rows": 384,
      "SAR": 0.13371253174541,
      "SamplesPerPixel": 1,
      "ScanOptions": "FS",
      "ScanningSequence": "EP",
      "SequenceName": "*epfid2d1_64",
      "SequenceVariant": "SK",
      "SeriesDescription": "ge_func_3x3x4_164",
      "SeriesNumber": 4,
      "SeriesTime": "091726.343000",
      "SliceLocation": -65.025519431584,
      "SliceThickness": 4.0,
      "SmallestImagePixelValue": 0,
      "SoftwareVersions": "syngo MR B17",
      "SpacingBetweenSlices": 4.5999999470644,
      "SpecificCharacterSet": "ISO_IR 100",
      "StudyID": "1",
      "StudyTime": "084901.296000",
      "TransmitCoilName": "Body",
      "VariableFlipAngleFlag": "N",
      "WindowCenterWidthExplanation": "Algo1",
      "dBdt": 0.0},
    "slices": {}
  },
  "time": {
    "samples": {
      "AcquisitionNumber": [1, 2, 3, 4, 5, 6, 7, 8, 9, 10, 11, 12, 13, 14, 15, 16, 17, 18, 19, 20, 21, 22, 23, 24, 25, 26, 27, 28, 29, 30, 31, 32, 33, 34, 35, 36, 37, 38, 39, 40, 41, 42, 43, 44, 45, 46, 47, 48, 49, 50, 51, 52, 53, 54, 55, 56, 57, 58, 59, 60, 61, 62, 63, 64, 65, 66, 67, 68, 69, 70, 71, 72, 73, 74, 75, 76, 77, 78, 79, 80, 81, 82, 83, 84, 85, 86, 87, 88, 89, 90, 91, 92, 93, 94, 95, 96, 97, 98, 99, 100, 101, 102, 103, 104, 105, 106, 107, 108, 109, 110, 111, 112, 113, 114, 115, 116, 117, 118, 119, 120, 121, 122, 123, 124, 125, 126, 127, 128, 129, 130, 131, 132, 133, 134, 135, 136, 137, 138, 139, 140, 141, 142, 143, 144, 145, 146, 147, 148, 149, 150, 151, 152, 153, 154, 155, 156, 157, 158, 159, 160, 161, 162, 163, 164],
      "AcquisitionTime": ["091644.897500", "091646.907500", "091648.915000", "091650.922500", "091652.930000", "091654.940000", "091656.947500", "091658.955000", "091700.962500", "091702.970000", "091704.980000", "091706.987500", "091708.995000", "091711.002500", "091713.010000", "091715.020000", "091717.027500", "091719.035000", "091721.042500", "091723.052500", "091725.060000", "091727.067500", "091729.075000", "091731.082500", "091733.092500", "091735.100000", "091737.107500", "091739.115000", "091741.122500", "091743.132500", "091745.140000", "091747.147500", "091749.155000", "091751.165000", "091753.172500", "091755.180000", "091757.187500", "091759.195000", "091801.205000", "091803.212500", "091805.220000", "091807.227500", "091809.235000", "091811.245000", "091813.252500", "091815.260000", "091817.267500", "091819.275000", "091821.285000", "091823.292500", "091825.300000", "091827.307500", "091829.317500", "091831.325000", "091833.332500", "091835.340000", "091837.347500", "091839.357500", "091841.365000", "091843.372500", "091845.380000", "091847.387500", "091849.397500", "091851.405000", "091853.412500", "091855.420000", "091857.430000", "091859.437500", "091901.445000", "091903.452500", "091905.460000", "091907.470000", "091909.477500", "091911.485000", "091913.492500", "091915.500000", "091917.510000", "091919.517500", "091921.525000", "091923.532500", "091925.542500", "091927.550000", "091929.557500", "091931.565000", "091933.572500", "091935.582500", "091937.590000", "091939.597500", "091941.605000", "091943.612500", "091945.622500", "091947.630000", "091949.637500", "091951.645000", "091953.652500", "091955.662500", "091957.670000", "091959.677500", "092001.685000", "092003.695000", "092005.702500", "092007.710000", "092009.717500", "092011.725000", "092013.735000", "092015.742500", "092017.750000", "092019.757500", "092021.765000", "092023.775000", "092025.782500", "092027.790000", "092029.797500", "092031.807500", "092033.815000", "092035.822500", "092037.830000", "092039.837500", "092041.847500", "092043.855000", "092045.862500", "092047.870000", "092049.877500", "092051.887500", "092053.895000", "092055.902500", "092057.910000", "092059.920000", "092101.927500", "092103.935000", "092105.942500", "092107.950000", "092109.960000", "092111.967500", "092113.975000", "092115.982500", "092117.990000", "092120.000000", "092122.007500", "092124.015000", "092126.022500", "092128.030000", "092130.040000", "092132.047500", "092134.055000", "092136.062500", "092138.072500", "092140.080000", "092142.087500", "092144.095000", "092146.102500", "092148.112500", "092150.120000", "092152.127500", "092154.135000", "092156.142500", "092158.152500", "092200.160000", "092202.167500", "092204.175000", "092206.185000", "092208.192500", "092210.200000", "092212.207500"],
      "ContentTime": ["091726.343000", "091726.359000", "091726.359000", "091726.359000", "091726.359000", "091726.359000", "091726.359000", "091726.375000", "091726.375000", "091726.375000", "091726.375000", "091726.375000", "091726.375000", "091726.390000", "091726.390000", "091726.390000", "091726.390000", "091726.390000", "091726.390000", "091726.390000", "091806.343000", "091806.343000", "091806.343000", "091806.343000", "091806.343000", "091806.359000", "091806.359000", "091806.359000", "091806.359000", "091806.359000", "091806.359000", "091806.359000", "091806.359000", "091806.375000", "091806.375000", "091806.375000", "091806.375000", "091806.375000", "091806.375000", "091806.375000", "091846.343000", "091846.343000", "091846.343000", "091846.343000", "091846.343000", "091846.359000", "091846.359000", "091846.359000", "091846.359000", "091846.359000", "091846.359000", "091846.375000", "091846.375000", "091846.375000", "091846.375000", "091846.375000", "091846.375000", "091846.375000", "091846.390000", "091846.390000", "091926.343000", "091926.343000", "091926.343000", "091926.343000", "091926.343000", "091926.359000", "091926.359000", "091926.359000", "091926.359000", "091926.375000", "091926.375000", "091926.375000", "091926.375000", "091926.375000", "091926.375000", "091926.375000", "091926.375000", "091926.390000", "091926.390000", "091926.390000", "092006.343000", "092006.343000", "092006.343000", "092006.343000", "092006.359000", "092006.359000", "092006.375000", "092006.375000", "092006.375000", "092006.375000", "092006.375000", "092006.375000", "092006.375000", "092006.390000", "092006.390000", "092006.390000", "092006.390000", "092006.390000", "092006.406000", "092006.406000", "092046.343000", "092046.343000", "092046.343000", "092046.343000", "092046.343000", "092046.359000", "092046.359000", "092046.359000", "092046.359000", "092046.375000", "092046.375000", "092046.375000", "092046.375000", "092046.375000", "092046.375000", "092046.390000", "092046.390000", "092046.390000", "092046.390000", "092046.390000", "092126.343000", "092126.343000", "092126.343000", "092126.343000", "092126.343000", "092126.359000", "092126.359000", "092126.359000", "092126.359000", "092126.359000", "092126.359000", "092126.359000", "092126.359000", "092126.359000", "092126.375000", "092126.375000", "092126.375000", "092126.375000", "092126.375000", "092126.375000", "092206.343000", "092206.343000", "092206.343000", "092206.359000", "092206.359000", "092206.359000", "092206.359000", "092206.359000", "092206.359000", "092206.359000", "092206.359000", "092206.359000", "092206.375000", "092206.375000", "092206.375000", "092206.375000", "092206.375000", "092206.375000", "092206.375000", "092206.375000", "092214.078000", "092214.078000", "092214.078000", "092214.078000"],
      "InstanceCreationTime": ["091726.343000", "091726.359000", "091726.359000", "091726.359000", "091726.359000", "091726.359000", "091726.359000", "091726.375000", "091726.375000", "091726.375000", "091726.375000", "091726.375000", "091726.375000", "091726.390000", "091726.390000", "091726.390000", "091726.390000", "091726.390000", "091726.390000", "091726.390000", "091806.343000", "091806.343000", "091806.343000", "091806.343000", "091806.343000", "091806.359000", "091806.359000", "091806.359000", "091806.359000", "091806.359000", "091806.359000", "091806.359000", "091806.359000", "091806.375000", "091806.375000", "091806.375000", "091806.375000", "091806.375000", "091806.375000", "091806.375000", "091846.343000", "091846.343000", "091846.343000", "091846.343000", "091846.343000", "091846.359000", "091846.359000", "091846.359000", "091846.359000", "091846.359000", "091846.359000", "091846.375000", "091846.375000", "091846.375000", "091846.375000", "091846.375000", "091846.375000", "091846.375000", "091846.390000", "091846.390000", "091926.343000", "091926.343000", "091926.343000", "091926.343000", "091926.343000", "091926.359000", "091926.359000", "091926.359000", "091926.359000", "091926.375000", "091926.375000", "091926.375000", "091926.375000", "091926.375000", "091926.375000", "091926.375000", "091926.375000", "091926.390000", "091926.390000", "091926.390000", "092006.343000", "092006.343000", "092006.343000", "092006.343000", "092006.359000", "092006.359000", "092006.375000", "092006.375000", "092006.375000", "092006.375000", "092006.375000", "092006.375000", "092006.375000", "092006.390000", "092006.390000", "092006.390000", "092006.390000", "092006.390000", "092006.406000", "092006.406000", "092046.343000", "092046.343000", "092046.343000", "092046.343000", "092046.343000", "092046.359000", "092046.359000", "092046.359000", "092046.359000", "092046.375000", "092046.375000", "092046.375000", "092046.375000", "092046.375000", "092046.375000", "092046.390000", "092046.390000", "092046.390000", "092046.390000", "092046.390000", "092126.343000", "092126.343000", "092126.343000", "092126.343000", "092126.343000", "092126.359000", "092126.359000", "092126.359000", "092126.359000", "092126.359000", "092126.359000", "092126.359000", "092126.359000", "092126.359000", "092126.375000", "092126.375000", "092126.375000", "092126.375000", "092126.375000", "092126.375000", "092206.343000", "092206.343000", "092206.343000", "092206.359000", "092206.359000", "092206.359000", "092206.359000", "092206.359000", "092206.359000", "092206.359000", "092206.359000", "092206.359000", "092206.375000", "092206.375000", "092206.375000", "092206.375000", "092206.375000", "092206.375000", "092206.375000", "092206.375000", "092214.078000", "092214.078000", "092214.078000", "092214.078000"],
      "InstanceNumber": [1, 2, 3, 4, 5, 6, 7, 8, 9, 10, 11, 12, 13, 14, 15, 16, 17, 18, 19, 20, 21, 22, 23, 24, 25, 26, 27, 28, 29, 30, 31, 32, 33, 34, 35, 36, 37, 38, 39, 40, 41, 42, 43, 44, 45, 46, 47, 48, 49, 50, 51, 52, 53, 54, 55, 56, 57, 58, 59, 60, 61, 62, 63, 64, 65, 66, 67, 68, 69, 70, 71, 72, 73, 74, 75, 76, 77, 78, 79, 80, 81, 82, 83, 84, 85, 86, 87, 88, 89, 90, 91, 92, 93, 94, 95, 96, 97, 98, 99, 100, 101, 102, 103, 104, 105, 106, 107, 108, 109, 110, 111, 112, 113, 114, 115, 116, 117, 118, 119, 120, 121, 122, 123, 124, 125, 126, 127, 128, 129, 130, 131, 132, 133, 134, 135, 136, 137, 138, 139, 140, 141, 142, 143, 144, 145, 146, 147, 148, 149, 150, 151, 152, 153, 154, 155, 156, 157, 158, 159, 160, 161, 162, 163, 164],
      "LargestImagePixelValue": [1940, 1891, 1884, 1873, 1845, 1863, 1853, 1865, 1864, 1865, 1839, 1869, 1866, 1895, 1865, 1881, 1872, 1876, 1871, 1892, 1887, 1882, 1870, 1894, 1870, 1870, 1899, 1878, 1883, 1883, 1969, 1890, 1877, 1893, 1874, 1865, 1882, 1857, 1909, 1873, 1875, 1865, 1876, 1855, 1873, 1877, 1878, 1873, 1845, 1857, 1860, 1854, 1856, 1874, 1852, 1859, 1856, 1850, 1861, 1860, 1861, 1869, 1862, 1893, 1840, 1867, 1872, 1860, 1872, 1902, 1882, 1878, 1883, 1879, 1886, 1890, 1867, 1880, 1893, 1875, 1869, 1869, 1950, 1884, 1862, 1854, 1853, 1861, 1849, 1842, 1871, 1892, 1861, 1851, 1854, 1863, 1857, 1868, 1870, 1863, 1858, 1863, 1846, 1869, 1855, 1865, 1868, 1858, 1865, 1874, 1845, 1869, 1836, 1820, 1835, 1862, 1933, 1822, 1852, 1860, 1831, 1885, 1856, 1858, 1874, 1914, 1877, 1863, 1860, 1852, 1856, 1889, 1853, 1868, 1879, 1909, 1897, 1889, 1891, 1894, 1893, 1880, 1879, 1870, 1888, 2003, 1892, 1878, 1888, 1875, 1898, 1878, 1907, 1876, 1886, 1873, 1893, 1899, 1882, 1896, 1877, 1904, 1888, 1894],
      "WindowCenter": [737.0, 736.0, 736.0, 736.0, 735.0, 735.0, 735.0, 735.0, 735.0, 735.0, 735.0, 735.0, 735.0, 736.0, 736.0, 736.0, 735.0, 735.0, 734.0, 734.0, 735.0, 735.0, 736.0, 736.0, 736.0, 736.0, 736.0, 736.0, 736.0, 735.0, 736.0, 736.0, 735.0, 735.0, 735.0, 736.0, 736.0, 737.0, 737.0, 737.0, 736.0, 736.0, 736.0, 734.0, 733.0, 733.0, 733.0, 734.0, 735.0, 736.0, 737.0, 737.0, 737.0, 737.0, 737.0, 737.0, 737.0, 736.0, 736.0, 736.0, 737.0, 736.0, 736.0, 736.0, 735.0, 735.0, 735.0, 735.0, 735.0, 736.0, 736.0, 736.0, 736.0, 737.0, 736.0, 737.0, 736.0, 736.0, 736.0, 735.0, 734.0, 733.0, 734.0, 734.0, 735.0, 736.0, 736.0, 736.0, 735.0, 735.0, 735.0, 736.0, 735.0, 736.0, 736.0, 737.0, 737.0, 737.0, 737.0, 736.0, 736.0, 735.0, 735.0, 735.0, 735.0, 735.0, 735.0, 735.0, 735.0, 735.0, 735.0, 736.0, 736.0, 737.0, 737.0, 738.0, 738.0, 737.0, 738.0, 738.0, 738.0, 738.0, 737.0, 736.0, 736.0, 737.0, 736.0, 736.0, 736.0, 735.0, 735.0, 734.0, 734.0, 735.0, 735.0, 736.0, 736.0, 737.0, 737.0, 737.0, 737.0, 737.0, 737.0, 737.0, 737.0, 737.0, 736.0, 737.0, 736.0, 736.0, 737.0, 737.0, 738.0, 738.0, 738.0, 738.0, 738.0, 738.0, 738.0, 737.0, 737.0, 737.0, 737.0, 737.0],
      "WindowWidth": [1619.0, 1615.0, 1614.0, 1616.0, 1612.0, 1612.0, 1610.0, 1611.0, 1611.0, 1611.0, 1611.0, 1613.0, 1613.0, 1616.0, 1616.0, 1615.0, 1613.0, 1612.0, 1610.0, 1610.0, 1611.0, 1612.0, 1615.0, 1616.0, 1613.0, 1614.0, 1615.0, 1615.0, 1614.0, 1613.0, 1615.0, 1613.0, 1612.0, 1612.0, 1611.0, 1614.0, 1614.0, 1617.0, 1618.0, 1617.0, 1616.0, 1613.0, 1613.0, 1608.0, 1605.0, 1605.0, 1607.0, 1610.0, 1612.0, 1613.0, 1616.0, 1616.0, 1618.0, 1618.0, 1617.0, 1619.0, 1618.0, 1615.0, 1615.0, 1615.0, 1617.0, 1616.0, 1615.0, 1615.0, 1612.0, 1611.0, 1611.0, 1611.0, 1613.0, 1615.0, 1615.0, 1615.0, 1615.0, 1616.0, 1616.0, 1617.0, 1615.0, 1615.0, 1613.0, 1610.0, 1608.0, 1607.0, 1610.0, 1609.0, 1611.0, 1614.0, 1615.0, 1613.0, 1611.0, 1611.0, 1612.0, 1614.0, 1612.0, 1613.0, 1615.0, 1617.0, 1617.0, 1617.0, 1618.0, 1615.0, 1614.0, 1612.0, 1612.0, 1610.0, 1610.0, 1610.0, 1611.0, 1611.0, 1611.0, 1612.0, 1612.0, 1614.0, 1615.0, 1618.0, 1617.0, 1620.0, 1621.0, 1617.0, 1619.0, 1621.0, 1619.0, 1619.0, 1616.0, 1615.0, 1613.0, 1616.0, 1613.0, 1614.0, 1614.0, 1611.0, 1610.0, 1609.0, 1608.0, 1610.0, 1612.0, 1614.0, 1616.0, 1617.0, 1617.0, 1618.0, 1618.0, 1616.0, 1616.0, 1616.0, 1616.0, 1617.0, 1615.0, 1616.0, 1614.0, 1615.0, 1616.0, 1617.0, 1619.0, 1620.0, 1620.0, 1621.0, 1620.0, 1620.0, 1619.0, 1618.0, 1617.0, 1616.0, 1618.0, 1616.0]
    },
    "slices": {}
  }
}