{
  "AcquisitionMatrixPE": 64,
  "AcquisitionNumber": 1,
  "AcquisitionTime": "09:10:7.605000",
  "BandwidthPerPixelPhaseEncode": 33.967,
  "BaseResolution": 64,
  "CoilCombinationMethod": "Sum of Squares",
  "CoilString": "C:HEA;HEP",
  "ConversionSoftware": "dcm2niix",
  "ConversionSoftwareVersion": "v1.0.20220720",
  "DerivedVendorReportedEchoSpacing": 0.000460005,
  "DeviceSerialNumber": "35193",
  "DwellTime": 3.1e-06,
  "EchoTime": 0.03,
  "EffectiveEchoSpacing": 0.000460005,
  "FlipAngle": 90,
  "HeudiconvVersion": "1.1.6",
  "ImageOrientationPatientDICOM": [0.99914, 0.0104717, -0.0401296, -0.0104633, 0.999945, 0.000420252],
  "ImageOrientationText": "Tra>Sag(-2.3)",
  "ImageType": [
    "ORIGINAL",
    "PRIMARY",
    "M",
    "ND",
    "MOSAIC"
],
  "ImagingFrequency": 123.254,
  "InPlanePhaseEncodingDirectionDICOM": "COL",
  "InstitutionAddress": "Xinjiekouwai Street No 19,Beijing,Haidian District,CN,100875",
  "InstitutionName": "Beijing Normal Universtiy/5777c4/",
  "InstitutionalDepartmentName": "Department",
  "MRAcquisitionType": "2D",
  "MagneticFieldStrength": 3,
  "Manufacturer": "Siemens",
  "ManufacturersModelName": "TrioTim",
  "MatrixCoilMode": "SENSE",
  "Modality": "MR",
  "NonlinearGradientCorrection": false,
  "PartialFourier": 1,
  "PatientPosition": "HFS",
  "PercentPhaseFOV": 100,
  "PercentSampling": 100,
  "PhaseEncodingDirection": "j-",
  "PhaseEncodingSteps": 64,
  "PhaseResolution": 1,
  "PixelBandwidth": 2520,
  "ProcedureStepDescription": "BNU_cst_2015^Guo.TaoMei",
  "ProtocolName": "ge_func_3x3x4_164",
  "PulseSequenceDetails": "%SiemensSeq%\\ep2d_bold",
  "ReceiveCoilName": "HeadMatrix",
  "ReconMatrixPE": 64,
  "RepetitionTime": 2,
  "SAR": 0.133713,
  "ScanOptions": "FS",
  "ScanningSequence": "EP",
  "SequenceName": "*epfid2d1_64",
  "SequenceVariant": "SK",
  "SeriesDescription": "ge_func_3x3x4_164",
  "SeriesNumber": 3,
  "ShimSetting": [-4527, -19466, -9840, 1197, -120, -696, -175, 48],
  "SliceThickness": 4,
  "SliceTiming": [0, 1.035, 0.06, 1.095, 0.1225, 1.155, 0.1825, 1.2175, 0.2425, 1.2775, 0.305, 1.3375, 0.365, 1.4, 0.425, 1.46, 0.4875, 1.52, 0.5475, 1.5825, 0.6075, 1.6425, 0.67, 1.7025, 0.73, 1.765, 0.79, 1.825, 0.8525, 1.885, 0.9125, 1.9475, 0.9725],
  "SoftwareVersions": "syngo MR B17",
  "SpacingBetweenSlices": 4.6,
  "StationName": "MRC35193",
  "TaskName": "LanguageControl",
  "TotalReadoutTime": 0.0289803,
  "TxRefAmp": 322.342,
  "dcmmeta_affine": [
    [-3.1223113536834717, -0.032697852700948715, -0.18460623919963837, 108.60418701171875],
    [-0.03272421658039093, 3.124828577041626, 7.407047419860646e-09, -83.67793273925781],
    [-0.1254049688577652, -0.0013132864842191339, 4.596293926239014, -60.71595001220703],
    [0.0, 0.0, 0.0, 1.0]
],
  "dcmmeta_reorient_transform": [
    [0.0, -1.0, 0.0, 63.0],
    [1.0, 0.0, 0.0, 0.0],
    [0.0, 0.0, 1.0, 0.0],
    [0.0, 0.0, 0.0, 1.0]
],
  "dcmmeta_shape": [64, 64, 33, 164],
  "dcmmeta_slice_dim": 2,
  "dcmmeta_version": 0.6,
  "global": {
    "const": {
      "AcquisitionMatrix": [64, 0, 0, 64],
      "AngioFlag": "N",
      "BitsAllocated": 16,
      "BitsStored": 12,
      "Columns": 384,
      "EchoNumbers": 1,
      "EchoTime": 30.0,
      "EchoTrainLength": 1,
      "FlipAngle": 90.0,
      "HighBit": 11,
      "ImageOrientationPatient": [0.99913960902473, 0.01047174876991, -0.040129592019, -0.0104633126133, 0.99994516973567, 0.0004202516573],
      "ImagePositionPatient": [-600.88236924316, -618.39472908339, -40.944018585734],
      "ImageType": [
        "ORIGINAL",
        "PRIMARY",
        "M",
        "ND",
        "MOSAIC"
],
      "ImagedNucleus": "1H",
      "ImagingFrequency": 123.253871,
      "InPlanePhaseEncodingDirection": "COL",
      "MRAcquisitionType": "2D",
      "MagneticFieldStrength": 3.0,
      "Manufacturer": "SIEMENS",
      "ManufacturerModelName": "TrioTim",
      "Modality": "MR",
      "NumberOfAverages": 1.0,
      "NumberOfPhaseEncodingSteps": 64,
      "PercentPhaseFieldOfView": 100.0,
      "PercentSampling": 100.0,
      "PerformedProcedureStepStartTime": "084901.437000",
      "PhotometricInterpretation": "MONOCHROME2",
      "PixelBandwidth": 2520.0,
      "PixelRepresentation": 0,
      "PixelSpacing": [3.125, 3.125],
      "ProtocolName": "ge_func_3x3x4_164",
      "RepetitionTime": 2000.0,
      "Rows": 384,
      "SAR": 0.13371253174541,
      "SamplesPerPixel": 1,
      "ScanOptions": "FS",
      "ScanningSequence": "EP",
      "SequenceName": "*epfid2d1_64",
      "SequenceVariant": "SK",
      "SeriesDescription": "ge_func_3x3x4_164",
      "SeriesNumber": 3,
      "SeriesTime": "091056.359000",
      "SliceLocation": -65.025519431584,
      "SliceThickness": 4.0,
      "SmallestImagePixelValue": 0,
      "SoftwareVersions": "syngo MR B17",
      "SpacingBetweenSlices": 4.5999999470644,
      "SpecificCharacterSet": "ISO_IR 100",
      "StudyID": "1",
      "StudyTime": "084901.296000",
      "TransmitCoilName": "Body",
      "VariableFlipAngleFlag": "N",
      "WindowCenterWidthExplanation": "Algo1",
      "dBdt": 0.0},
    "slices": {}
  },
  "time": {
    "samples": {
      "AcquisitionNumber": [1, 2, 3, 4, 5, 6, 7, 8, 9, 10, 11, 12, 13, 14, 15, 16, 17, 18, 19, 20, 21, 22, 23, 24, 25, 26, 27, 28, 29, 30, 31, 32, 33, 34, 35, 36, 37, 38, 39, 40, 41, 42, 43, 44, 45, 46, 47, 48, 49, 50, 51, 52, 53, 54, 55, 56, 57, 58, 59, 60, 61, 62, 63, 64, 65, 66, 67, 68, 69, 70, 71, 72, 73, 74, 75, 76, 77, 78, 79, 80, 81, 82, 83, 84, 85, 86, 87, 88, 89, 90, 91, 92, 93, 94, 95, 96, 97, 98, 99, 100, 101, 102, 103, 104, 105, 106, 107, 108, 109, 110, 111, 112, 113, 114, 115, 116, 117, 118, 119, 120, 121, 122, 123, 124, 125, 126, 127, 128, 129, 130, 131, 132, 133, 134, 135, 136, 137, 138, 139, 140, 141, 142, 143, 144, 145, 146, 147, 148, 149, 150, 151, 152, 153, 154, 155, 156, 157, 158, 159, 160, 161, 162, 163, 164],
      "AcquisitionTime": ["091007.605000", "091009.612500", "091011.622500", "091013.630000", "091015.637500", "091017.645000", "091019.652500", "091021.662500", "091023.670000", "091025.677500", "091027.685000", "091029.692500", "091031.702500", "091033.710000", "091035.717500", "091037.725000", "091039.735000", "091041.742500", "091043.750000", "091045.757500", "091047.765000", "091049.775000", "091051.782500", "091053.790000", "091055.797500", "091057.805000", "091059.815000", "091101.822500", "091103.830000", "091105.837500", "091107.847500", "091109.855000", "091111.862500", "091113.870000", "091115.877500", "091117.887500", "091119.895000", "091121.902500", "091123.910000", "091125.917500", "091127.927500", "091129.935000", "091131.942500", "091133.950000", "091135.960000", "091137.967500", "091139.975000", "091141.982500", "091143.990000", "091146.000000", "091148.007500", "091150.015000", "091152.022500", "091154.030000", "091156.040000", "091158.047500", "091200.055000", "091202.062500", "091204.070000", "091206.080000", "091208.087500", "091210.095000", "091212.102500", "091214.112500", "091216.120000", "091218.127500", "091220.135000", "091222.142500", "091224.152500", "091226.160000", "091228.167500", "091230.175000", "091232.182500", "091234.192500", "091236.200000", "091238.207500", "091240.215000", "091242.225000", "091244.232500", "091246.240000", "091248.247500", "091250.255000", "091252.265000", "091254.272500", "091256.280000", "091258.287500", "091300.295000", "091302.305000", "091304.312500", "091306.320000", "091308.327500", "091310.337500", "091312.345000", "091314.352500", "091316.360000", "091318.367500", "091320.377500", "091322.385000", "091324.392500", "091326.400000", "091328.407500", "091330.417500", "091332.425000", "091334.432500", "091336.440000", "091338.447500", "091340.457500", "091342.465000", "091344.472500", "091346.480000", "091348.490000", "091350.497500", "091352.505000", "091354.512500", "091356.520000", "091358.530000", "091400.537500", "091402.545000", "091404.552500", "091406.560000", "091408.570000", "091410.577500", "091412.585000", "091414.592500", "091416.602500", "091418.610000", "091420.617500", "091422.625000", "091424.632500", "091426.642500", "091428.650000", "091430.657500", "091432.665000", "091434.672500", "091436.682500", "091438.690000", "091440.697500", "091442.705000", "091444.715000", "091446.722500", "091448.730000", "091450.737500", "091452.745000", "091454.755000", "091456.762500", "091458.770000", "091500.777500", "091502.785000", "091504.795000", "091506.802500", "091508.810000", "091510.817500", "091512.825000", "091514.835000", "091516.842500", "091518.850000", "091520.857500", "091522.867500", "091524.875000", "091526.882500", "091528.890000", "091530.897500", "091532.907500", "091534.915000"],
      "ContentTime": ["091056.375000", "091056.375000", "091056.375000", "091056.375000", "091056.375000", "091056.375000", "091056.390000", "091056.390000", "091056.390000", "091056.406000", "091056.406000", "091056.406000", "091056.406000", "091056.406000", "091056.406000", "091056.406000", "091056.406000", "091056.421000", "091056.421000", "091056.421000", "091056.421000", "091056.421000", "091056.437000", "091136.359000", "091136.359000", "091136.359000", "091136.359000", "091136.359000", "091136.375000", "091136.375000", "091136.375000", "091136.375000", "091136.375000", "091136.390000", "091136.390000", "091136.390000", "091136.390000", "091136.390000", "091136.390000", "091136.390000", "091136.406000", "091136.406000", "091136.406000", "091216.359000", "091216.359000", "091216.359000", "091216.359000", "091216.359000", "091216.375000", "091216.375000", "091216.375000", "091216.375000", "091216.390000", "091216.390000", "091216.390000", "091216.390000", "091216.390000", "091216.390000", "091216.390000", "091216.390000", "091216.406000", "091216.406000", "091216.406000", "091256.359000", "091256.359000", "091256.359000", "091256.359000", "091256.359000", "091256.375000", "091256.375000", "091256.375000", "091256.375000", "091256.375000", "091256.390000", "091256.390000", "091256.390000", "091256.390000", "091256.390000", "091256.406000", "091256.406000", "091256.406000", "091256.406000", "091256.406000", "091336.359000", "091336.359000", "091336.359000", "091336.359000", "091336.375000", "091336.375000", "091336.375000", "091336.375000", "091336.375000", "091336.375000", "091336.375000", "091336.390000", "091336.390000", "091336.390000", "091336.390000", "091336.390000", "091336.390000", "091336.390000", "091336.390000", "091336.406000", "091416.359000", "091416.359000", "091416.359000", "091416.359000", "091416.359000", "091416.375000", "091416.375000", "091416.375000", "091416.375000", "091416.375000", "091416.375000", "091416.375000", "091416.375000", "091416.390000", "091416.390000", "091416.390000", "091416.390000", "091416.390000", "091416.390000", "091416.390000", "091456.359000", "091456.359000", "091456.359000", "091456.359000", "091456.359000", "091456.375000", "091456.375000", "091456.375000", "091456.375000", "091456.375000", "091456.375000", "091456.375000", "091456.375000", "091456.390000", "091456.390000", "091456.390000", "091456.390000", "091456.406000", "091456.406000", "091456.406000", "091536.359000", "091536.359000", "091536.375000", "091536.375000", "091536.375000", "091536.375000", "091536.375000", "091536.375000", "091536.390000", "091536.390000", "091536.390000", "091536.390000", "091536.390000", "091536.390000", "091536.390000", "091536.406000", "091536.406000", "091536.406000", "091536.406000", "091536.406000", "091537.046000"],
      "InstanceCreationTime": ["091056.375000", "091056.375000", "091056.375000", "091056.375000", "091056.375000", "091056.375000", "091056.390000", "091056.390000", "091056.390000", "091056.406000", "091056.406000", "091056.406000", "091056.406000", "091056.406000", "091056.406000", "091056.406000", "091056.406000", "091056.421000", "091056.421000", "091056.421000", "091056.421000", "091056.421000", "091056.437000", "091136.359000", "091136.359000", "091136.359000", "091136.359000", "091136.359000", "091136.375000", "091136.375000", "091136.375000", "091136.375000", "091136.375000", "091136.390000", "091136.390000", "091136.390000", "091136.390000", "091136.390000", "091136.390000", "091136.390000", "091136.406000", "091136.406000", "091136.406000", "091216.359000", "091216.359000", "091216.359000", "091216.359000", "091216.359000", "091216.375000", "091216.375000", "091216.375000", "091216.375000", "091216.390000", "091216.390000", "091216.390000", "091216.390000", "091216.390000", "091216.390000", "091216.390000", "091216.390000", "091216.406000", "091216.406000", "091216.406000", "091256.359000", "091256.359000", "091256.359000", "091256.359000", "091256.359000", "091256.375000", "091256.375000", "091256.375000", "091256.375000", "091256.375000", "091256.390000", "091256.390000", "091256.390000", "091256.390000", "091256.390000", "091256.406000", "091256.406000", "091256.406000", "091256.406000", "091256.406000", "091336.359000", "091336.359000", "091336.359000", "091336.359000", "091336.375000", "091336.375000", "091336.375000", "091336.375000", "091336.375000", "091336.375000", "091336.375000", "091336.390000", "091336.390000", "091336.390000", "091336.390000", "091336.390000", "091336.390000", "091336.390000", "091336.390000", "091336.406000", "091416.359000", "091416.359000", "091416.359000", "091416.359000", "091416.359000", "091416.375000", "091416.375000", "091416.375000", "091416.375000", "091416.375000", "091416.375000", "091416.375000", "091416.375000", "091416.390000", "091416.390000", "091416.390000", "091416.390000", "091416.390000", "091416.390000", "091416.390000", "091456.359000", "091456.359000", "091456.359000", "091456.359000", "091456.359000", "091456.375000", "091456.375000", "091456.375000", "091456.375000", "091456.375000", "091456.375000", "091456.375000", "091456.375000", "091456.390000", "091456.390000", "091456.390000", "091456.390000", "091456.406000", "091456.406000", "091456.406000", "091536.359000", "091536.359000", "091536.375000", "091536.375000", "091536.375000", "091536.375000", "091536.375000", "091536.375000", "091536.390000", "091536.390000", "091536.390000", "091536.390000", "091536.390000", "091536.390000", "091536.390000", "091536.406000", "091536.406000", "091536.406000", "091536.406000", "091536.406000", "091537.046000"],
      "InstanceNumber": [1, 2, 3, 4, 5, 6, 7, 8, 9, 10, 11, 12, 13, 14, 15, 16, 17, 18, 19, 20, 21, 22, 23, 24, 25, 26, 27, 28, 29, 30, 31, 32, 33, 34, 35, 36, 37, 38, 39, 40, 41, 42, 43, 44, 45, 46, 47, 48, 49, 50, 51, 52, 53, 54, 55, 56, 57, 58, 59, 60, 61, 62, 63, 64, 65, 66, 67, 68, 69, 70, 71, 72, 73, 74, 75, 76, 77, 78, 79, 80, 81, 82, 83, 84, 85, 86, 87, 88, 89, 90, 91, 92, 93, 94, 95, 96, 97, 98, 99, 100, 101, 102, 103, 104, 105, 106, 107, 108, 109, 110, 111, 112, 113, 114, 115, 116, 117, 118, 119, 120, 121, 122, 123, 124, 125, 126, 127, 128, 129, 130, 131, 132, 133, 134, 135, 136, 137, 138, 139, 140, 141, 142, 143, 144, 145, 146, 147, 148, 149, 150, 151, 152, 153, 154, 155, 156, 157, 158, 159, 160, 161, 162, 163, 164],
      "LargestImagePixelValue": [1956, 1919, 1900, 1947, 1866, 1930, 1935, 1915, 1976, 1924, 1896, 1929, 1866, 1955, 1924, 1913, 1971, 1945, 1883, 1934, 1984, 1935, 1922, 1964, 1958, 1931, 1904, 1939, 1975, 1936, 1893, 1913, 1889, 1905, 1914, 1967, 1907, 1984, 1941, 1914, 1875, 2008, 1952, 1909, 1985, 1991, 1947, 1972, 1950, 1972, 1959, 1967, 1950, 1954, 1987, 1891, 2005, 1923, 2006, 1952, 1925, 1948, 1966, 1959, 1974, 1896, 1984, 1929, 1972, 1933, 1900, 1936, 1954, 1962, 1982, 1955, 1972, 1938, 1965, 1913, 1923, 1900, 1850, 1966, 1896, 1993, 1958, 1926, 1907, 1964, 1897, 1870, 1899, 1962, 1906, 1891, 1963, 1878, 1941, 1904, 1912, 1926, 1838, 1946, 1940, 1921, 1938, 1902, 1922, 1969, 1926, 1946, 1938, 1978, 1944, 1952, 1958, 1934, 1956, 1898, 1968, 1840, 1970, 1947, 1952, 1832, 1974, 1971, 1907, 1857, 1998, 1872, 1940, 1967, 1947, 1960, 1917, 1947, 1907, 1943, 1857, 1926, 1951, 1824, 1901, 1937, 1953, 1930, 1954, 1831, 1964, 1957, 1897, 1959, 1905, 1948, 1884, 1939, 1910, 1852, 1843, 1938, 1862, 1871],
      "WindowCenter": [736.0, 735.0, 735.0, 735.0, 735.0, 734.0, 734.0, 734.0, 733.0, 733.0, 733.0, 732.0, 732.0, 732.0, 732.0, 732.0, 731.0, 731.0, 731.0, 731.0, 732.0, 733.0, 733.0, 734.0, 733.0, 733.0, 732.0, 732.0, 733.0, 733.0, 733.0, 732.0, 732.0, 732.0, 732.0, 731.0, 731.0, 731.0, 733.0, 732.0, 732.0, 731.0, 731.0, 732.0, 732.0, 732.0, 732.0, 732.0, 732.0, 732.0, 732.0, 733.0, 732.0, 732.0, 732.0, 732.0, 732.0, 733.0, 733.0, 733.0, 732.0, 732.0, 731.0, 731.0, 732.0, 732.0, 732.0, 732.0, 733.0, 733.0, 733.0, 733.0, 733.0, 733.0, 733.0, 732.0, 732.0, 733.0, 733.0, 733.0, 732.0, 731.0, 732.0, 732.0, 733.0, 734.0, 734.0, 734.0, 734.0, 733.0, 733.0, 733.0, 734.0, 734.0, 734.0, 734.0, 734.0, 733.0, 733.0, 733.0, 733.0, 734.0, 734.0, 734.0, 733.0, 733.0, 733.0, 734.0, 734.0, 735.0, 734.0, 734.0, 734.0, 735.0, 734.0, 735.0, 734.0, 734.0, 734.0, 735.0, 734.0, 734.0, 734.0, 734.0, 733.0, 733.0, 733.0, 733.0, 733.0, 733.0, 735.0, 734.0, 735.0, 735.0, 733.0, 734.0, 734.0, 735.0, 735.0, 734.0, 733.0, 733.0, 733.0, 733.0, 733.0, 734.0, 734.0, 734.0, 735.0, 735.0, 735.0, 735.0, 735.0, 734.0, 734.0, 735.0, 735.0, 735.0, 735.0, 735.0, 735.0, 735.0, 735.0, 736.0],
      "WindowWidth": [1615.0, 1611.0, 1613.0, 1614.0, 1612.0, 1610.0, 1610.0, 1609.0, 1608.0, 1605.0, 1605.0, 1603.0, 1604.0, 1604.0, 1604.0, 1602.0, 1602.0, 1600.0, 1601.0, 1601.0, 1604.0, 1606.0, 1607.0, 1609.0, 1606.0, 1606.0, 1603.0, 1603.0, 1606.0, 1605.0, 1606.0, 1605.0, 1604.0, 1602.0, 1602.0, 1600.0, 1600.0, 1602.0, 1605.0, 1602.0, 1602.0, 1601.0, 1602.0, 1603.0, 1603.0, 1603.0, 1603.0, 1604.0, 1604.0, 1604.0, 1603.0, 1605.0, 1605.0, 1603.0, 1605.0, 1604.0, 1605.0, 1607.0, 1607.0, 1605.0, 1603.0, 1602.0, 1601.0, 1601.0, 1603.0, 1603.0, 1603.0, 1604.0, 1606.0, 1605.0, 1605.0, 1607.0, 1607.0, 1606.0, 1605.0, 1603.0, 1605.0, 1606.0, 1606.0, 1605.0, 1602.0, 1601.0, 1602.0, 1605.0, 1608.0, 1610.0, 1609.0, 1608.0, 1608.0, 1607.0, 1607.0, 1607.0, 1608.0, 1610.0, 1610.0, 1608.0, 1609.0, 1607.0, 1607.0, 1607.0, 1607.0, 1608.0, 1608.0, 1609.0, 1606.0, 1606.0, 1607.0, 1609.0, 1611.0, 1613.0, 1609.0, 1609.0, 1610.0, 1612.0, 1610.0, 1610.0, 1610.0, 1609.0, 1610.0, 1610.0, 1610.0, 1608.0, 1609.0, 1608.0, 1607.0, 1603.0, 1606.0, 1606.0, 1607.0, 1607.0, 1611.0, 1610.0, 1612.0, 1611.0, 1606.0, 1611.0, 1610.0, 1612.0, 1610.0, 1611.0, 1607.0, 1607.0, 1605.0, 1604.0, 1608.0, 1609.0, 1611.0, 1609.0, 1612.0, 1612.0, 1613.0, 1611.0, 1612.0, 1611.0, 1609.0, 1611.0, 1612.0, 1613.0, 1612.0, 1611.0, 1610.0, 1611.0, 1613.0, 1614.0]
    },
    "slices": {}
  }
}