{
  "AcquisitionMatrixPE": 64,
  "AcquisitionNumber": 1,
  "AcquisitionTime": "09:22:55.662500",
  "BandwidthPerPixelPhaseEncode": 33.967,
  "BaseResolution": 64,
  "CoilCombinationMethod": "Sum of Squares",
  "CoilString": "C:HEA;HEP",
  "ConversionSoftware": "dcm2niix",
  "ConversionSoftwareVersion": "v1.0.20220720",
  "DerivedVendorReportedEchoSpacing": 0.000460005,
  "DeviceSerialNumber": "35193",
  "DwellTime": 3.1e-06,
  "EchoTime": 0.03,
  "EffectiveEchoSpacing": 0.000460005,
  "FlipAngle": 90,
  "HeudiconvVersion": "1.1.6",
  "ImageOrientationPatientDICOM": [0.99914, 0.0104717, -0.0401296, -0.0104633, 0.999945, 0.000420252],
  "ImageOrientationText": "Tra>Sag(-2.3)",
  "ImageType": [
    "ORIGINAL",
    "PRIMARY",
    "M",
    "ND",
    "MOSAIC"
],
  "ImagingFrequency": 123.254,
  "InPlanePhaseEncodingDirectionDICOM": "COL",
  "InstitutionAddress": "Xinjiekouwai Street No 19,Beijing,Haidian District,CN,100875",
  "InstitutionName": "Beijing Normal Universtiy/5777c4/",
  "InstitutionalDepartmentName": "Department",
  "MRAcquisitionType": "2D",
  "MagneticFieldStrength": 3,
  "Manufacturer": "Siemens",
  "ManufacturersModelName": "TrioTim",
  "MatrixCoilMode": "SENSE",
  "Modality": "MR",
  "NonlinearGradientCorrection": false,
  "PartialFourier": 1,
  "PatientPosition": "HFS",
  "PercentPhaseFOV": 100,
  "PercentSampling": 100,
  "PhaseEncodingDirection": "j-",
  "PhaseEncodingSteps": 64,
  "PhaseResolution": 1,
  "PixelBandwidth": 2520,
  "ProcedureStepDescription": "BNU_cst_2015^Guo.TaoMei",
  "ProtocolName": "ge_func_3x3x4_164",
  "PulseSequenceDetails": "%SiemensSeq%\\ep2d_bold",
  "ReceiveCoilName": "HeadMatrix",
  "ReconMatrixPE": 64,
  "RepetitionTime": 2,
  "SAR": 0.133713,
  "ScanOptions": "FS",
  "ScanningSequence": "EP",
  "SequenceName": "*epfid2d1_64",
  "SequenceVariant": "SK",
  "SeriesDescription": "ge_func_3x3x4_164",
  "SeriesNumber": 5,
  "ShimSetting": [-4527, -19466, -9840, 1197, -120, -696, -175, 48],
  "SliceThickness": 4,
  "SliceTiming": [0, 1.035, 0.0625, 1.095, 0.1225, 1.1575, 0.1825, 1.2175, 0.245, 1.2775, 0.305, 1.34, 0.365, 1.4, 0.4275, 1.46, 0.4875, 1.5225, 0.5475, 1.5825, 0.61, 1.6425, 0.67, 1.705, 0.73, 1.765, 0.7925, 1.825, 0.8525, 1.8875, 0.9125, 1.9475, 0.975],
  "SoftwareVersions": "syngo MR B17",
  "SpacingBetweenSlices": 4.6,
  "StationName": "MRC35193",
  "TaskName": "CognitiveControl",
  "TotalReadoutTime": 0.0289803,
  "TxRefAmp": 322.342,
  "dcmmeta_affine": [
    [-3.1223113536834717, -0.032697852700948715, -0.18460623919963837, 108.60418701171875],
    [-0.03272421658039093, 3.124828577041626, 7.407047419860646e-09, -83.67793273925781],
    [-0.1254049688577652, -0.0013132864842191339, 4.596293926239014, -60.71595001220703],
    [0.0, 0.0, 0.0, 1.0]
],
  "dcmmeta_reorient_transform": [
    [0.0, -1.0, 0.0, 63.0],
    [1.0, 0.0, 0.0, 0.0],
    [0.0, 0.0, 1.0, 0.0],
    [0.0, 0.0, 0.0, 1.0]
],
  "dcmmeta_shape": [64, 64, 33, 164],
  "dcmmeta_slice_dim": 2,
  "dcmmeta_version": 0.6,
  "global": {
    "const": {
      "AcquisitionMatrix": [64, 0, 0, 64],
      "AngioFlag": "N",
      "BitsAllocated": 16,
      "BitsStored": 12,
      "Columns": 384,
      "EchoNumbers": 1,
      "EchoTime": 30.0,
      "EchoTrainLength": 1,
      "FlipAngle": 90.0,
      "HighBit": 11,
      "ImageOrientationPatient": [0.99913960902473, 0.01047174876991, -0.040129592019, -0.0104633126133, 0.99994516973567, 0.0004202516573],
      "ImagePositionPatient": [-600.88236924316, -618.39472908339, -40.944018585734],
      "ImageType": [
        "ORIGINAL",
        "PRIMARY",
        "M",
        "ND",
        "MOSAIC"
],
      "ImagedNucleus": "1H",
      "ImagingFrequency": 123.253883,
      "InPlanePhaseEncodingDirection": "COL",
      "MRAcquisitionType": "2D",
      "MagneticFieldStrength": 3.0,
      "Manufacturer": "SIEMENS",
      "ManufacturerModelName": "TrioTim",
      "Modality": "MR",
      "NumberOfAverages": 1.0,
      "NumberOfPhaseEncodingSteps": 64,
      "PercentPhaseFieldOfView": 100.0,
      "PercentSampling": 100.0,
      "PerformedProcedureStepStartTime": "084901.437000",
      "PhotometricInterpretation": "MONOCHROME2",
      "PixelBandwidth": 2520.0,
      "PixelRepresentation": 0,
      "PixelSpacing": [3.125, 3.125],
      "ProtocolName": "ge_func_3x3x4_164",
      "RepetitionTime": 2000.0,
      "Rows": 384,
      "SAR": 0.13371253174541,
      "SamplesPerPixel": 1,
      "ScanOptions": "FS",
      "ScanningSequence": "EP",
      "SequenceName": "*epfid2d1_64",
      "SequenceVariant": "SK",
      "SeriesDescription": "ge_func_3x3x4_164",
      "SeriesNumber": 5,
      "SeriesTime": "092346.359000",
      "SliceLocation": -65.025519431584,
      "SliceThickness": 4.0,
      "SmallestImagePixelValue": 0,
      "SoftwareVersions": "syngo MR B17",
      "SpacingBetweenSlices": 4.5999999470644,
      "SpecificCharacterSet": "ISO_IR 100",
      "StudyID": "1",
      "StudyTime": "084901.296000",
      "TransmitCoilName": "Body",
      "VariableFlipAngleFlag": "N",
      "WindowCenterWidthExplanation": "Algo1",
      "dBdt": 0.0},
    "slices": {}
  },
  "time": {
    "samples": {
      "AcquisitionNumber": [1, 2, 3, 4, 5, 6, 7, 8, 9, 10, 11, 12, 13, 14, 15, 16, 17, 18, 19, 20, 21, 22, 23, 24, 25, 26, 27, 28, 29, 30, 31, 32, 33, 34, 35, 36, 37, 38, 39, 40, 41, 42, 43, 44, 45, 46, 47, 48, 49, 50, 51, 52, 53, 54, 55, 56, 57, 58, 59, 60, 61, 62, 63, 64, 65, 66, 67, 68, 69, 70, 71, 72, 73, 74, 75, 76, 77, 78, 79, 80, 81, 82, 83, 84, 85, 86, 87, 88, 89, 90, 91, 92, 93, 94, 95, 96, 97, 98, 99, 100, 101, 102, 103, 104, 105, 106, 107, 108, 109, 110, 111, 112, 113, 114, 115, 116, 117, 118, 119, 120, 121, 122, 123, 124, 125, 126, 127, 128, 129, 130, 131, 132, 133, 134, 135, 136, 137, 138, 139, 140, 141, 142, 143, 144, 145, 146, 147, 148, 149, 150, 151, 152, 153, 154, 155, 156, 157, 158, 159, 160, 161, 162, 163, 164],
      "AcquisitionTime": ["092255.662500", "092257.672500", "092259.680000", "092301.687500", "092303.695000", "092305.705000", "092307.712500", "092309.720000", "092311.727500", "092313.735000", "092315.745000", "092317.752500", "092319.760000", "092321.767500", "092323.775000", "092325.785000", "092327.792500", "092329.800000", "092331.807500", "092333.815000", "092335.825000", "092337.832500", "092339.840000", "092341.847500", "092343.857500", "092345.865000", "092347.872500", "092349.880000", "092351.887500", "092353.897500", "092355.905000", "092357.912500", "092359.920000", "092401.927500", "092403.937500", "092405.945000", "092407.952500", "092409.960000", "092411.970000", "092413.977500", "092415.985000", "092417.992500", "092420.000000", "092422.010000", "092424.017500", "092426.025000", "092428.032500", "092430.040000", "092432.050000", "092434.057500", "092436.065000", "092438.072500", "092440.082500", "092442.090000", "092444.097500", "092446.105000", "092448.112500", "092450.122500", "092452.130000", "092454.137500", "092456.145000", "092458.152500", "092500.162500", "092502.170000", "092504.177500", "092506.185000", "092508.192500", "092510.202500", "092512.210000", "092514.217500", "092516.225000", "092518.235000", "092520.242500", "092522.250000", "092524.257500", "092526.265000", "092528.275000", "092530.282500", "092532.290000", "092534.297500", "092536.305000", "092538.315000", "092540.322500", "092542.330000", "092544.337500", "092546.347500", "092548.355000", "092550.362500", "092552.370000", "092554.377500", "092556.387500", "092558.395000", "092600.402500", "092602.410000", "092604.417500", "092606.427500", "092608.435000", "092610.442500", "092612.450000", "092614.460000", "092616.467500", "092618.475000", "092620.482500", "092622.490000", "092624.500000", "092626.507500", "092628.515000", "092630.522500", "092632.530000", "092634.540000", "092636.547500", "092638.555000", "092640.562500", "092642.570000", "092644.580000", "092646.587500", "092648.595000", "092650.602500", "092652.612500", "092654.620000", "092656.627500", "092658.635000", "092700.642500", "092702.652500", "092704.660000", "092706.667500", "092708.675000", "092710.682500", "092712.692500", "092714.700000", "092716.707500", "092718.715000", "092720.725000", "092722.732500", "092724.740000", "092726.747500", "092728.755000", "092730.765000", "092732.772500", "092734.780000", "092736.787500", "092738.795000", "092740.805000", "092742.812500", "092744.820000", "092746.827500", "092748.837500", "092750.845000", "092752.852500", "092754.860000", "092756.867500", "092758.877500", "092800.885000", "092802.892500", "092804.900000", "092806.907500", "092808.917500", "092810.925000", "092812.932500", "092814.940000", "092816.947500", "092818.957500", "092820.965000", "092822.972500"],
      "ContentTime": ["092346.359000", "092346.375000", "092346.375000", "092346.375000", "092346.375000", "092346.390000", "092346.390000", "092346.390000", "092346.390000", "092346.390000", "092346.390000", "092346.390000", "092346.390000", "092346.406000", "092346.406000", "092346.406000", "092346.406000", "092346.421000", "092346.421000", "092346.421000", "092346.421000", "092346.421000", "092346.437000", "092346.437000", "092346.437000", "092426.359000", "092426.359000", "092426.359000", "092426.359000", "092426.375000", "092426.375000", "092426.375000", "092426.375000", "092426.375000", "092426.390000", "092426.390000", "092426.390000", "092426.390000", "092426.406000", "092426.406000", "092426.406000", "092426.406000", "092426.406000", "092426.406000", "092426.406000", "092506.359000", "092506.359000", "092506.359000", "092506.359000", "092506.359000", "092506.375000", "092506.375000", "092506.375000", "092506.375000", "092506.375000", "092506.375000", "092506.375000", "092506.375000", "092506.390000", "092506.390000", "092506.390000", "092506.390000", "092506.390000", "092506.390000", "092506.390000", "092546.359000", "092546.359000", "092546.359000", "092546.359000", "092546.375000", "092546.375000", "092546.375000", "092546.375000", "092546.375000", "092546.375000", "092546.390000", "092546.390000", "092546.390000", "092546.390000", "092546.390000", "092546.390000", "092546.406000", "092546.406000", "092546.406000", "092546.406000", "092626.359000", "092626.359000", "092626.359000", "092626.375000", "092626.375000", "092626.375000", "092626.375000", "092626.375000", "092626.375000", "092626.375000", "092626.375000", "092626.390000", "092626.390000", "092626.390000", "092626.390000", "092626.390000", "092626.390000", "092626.390000", "092626.390000", "092626.406000", "092706.359000", "092706.359000", "092706.359000", "092706.359000", "092706.359000", "092706.375000", "092706.375000", "092706.375000", "092706.375000", "092706.375000", "092706.375000", "092706.375000", "092706.375000", "092706.390000", "092706.390000", "092706.390000", "092706.390000", "092706.390000", "092706.390000", "092706.390000", "092746.359000", "092746.359000", "092746.359000", "092746.359000", "092746.359000", "092746.375000", "092746.375000", "092746.375000", "092746.390000", "092746.390000", "092746.390000", "092746.390000", "092746.390000", "092746.390000", "092746.390000", "092746.406000", "092746.406000", "092746.406000", "092746.406000", "092746.406000", "092824.281000", "092824.281000", "092824.281000", "092824.281000", "092824.281000", "092824.281000", "092824.296000", "092824.296000", "092824.296000", "092824.296000", "092824.296000", "092824.296000", "092824.296000", "092824.296000", "092824.312000", "092824.312000", "092824.312000", "092824.312000", "092824.312000"],
      "InstanceCreationTime": ["092346.359000", "092346.375000", "092346.375000", "092346.375000", "092346.375000", "092346.390000", "092346.390000", "092346.390000", "092346.390000", "092346.390000", "092346.390000", "092346.390000", "092346.390000", "092346.406000", "092346.406000", "092346.406000", "092346.406000", "092346.421000", "092346.421000", "092346.421000", "092346.421000", "092346.421000", "092346.437000", "092346.437000", "092346.437000", "092426.359000", "092426.359000", "092426.359000", "092426.359000", "092426.375000", "092426.375000", "092426.375000", "092426.375000", "092426.375000", "092426.390000", "092426.390000", "092426.390000", "092426.390000", "092426.406000", "092426.406000", "092426.406000", "092426.406000", "092426.406000", "092426.406000", "092426.406000", "092506.359000", "092506.359000", "092506.359000", "092506.359000", "092506.359000", "092506.375000", "092506.375000", "092506.375000", "092506.375000", "092506.375000", "092506.375000", "092506.375000", "092506.375000", "092506.390000", "092506.390000", "092506.390000", "092506.390000", "092506.390000", "092506.390000", "092506.390000", "092546.359000", "092546.359000", "092546.359000", "092546.359000", "092546.375000", "092546.375000", "092546.375000", "092546.375000", "092546.375000", "092546.375000", "092546.390000", "092546.390000", "092546.390000", "092546.390000", "092546.390000", "092546.390000", "092546.406000", "092546.406000", "092546.406000", "092546.406000", "092626.359000", "092626.359000", "092626.359000", "092626.375000", "092626.375000", "092626.375000", "092626.375000", "092626.375000", "092626.375000", "092626.375000", "092626.375000", "092626.390000", "092626.390000", "092626.390000", "092626.390000", "092626.390000", "092626.390000", "092626.390000", "092626.390000", "092626.406000", "092706.359000", "092706.359000", "092706.359000", "092706.359000", "092706.359000", "092706.375000", "092706.375000", "092706.375000", "092706.375000", "092706.375000", "092706.375000", "092706.375000", "092706.375000", "092706.390000", "092706.390000", "092706.390000", "092706.390000", "092706.390000", "092706.390000", "092706.390000", "092746.359000", "092746.359000", "092746.359000", "092746.359000", "092746.359000", "092746.375000", "092746.375000", "092746.375000", "092746.390000", "092746.390000", "092746.390000", "092746.390000", "092746.390000", "092746.390000", "092746.390000", "092746.406000", "092746.406000", "092746.406000", "092746.406000", "092746.406000", "092824.281000", "092824.281000", "092824.281000", "092824.281000", "092824.281000", "092824.281000", "092824.296000", "092824.296000", "092824.296000", "092824.296000", "092824.296000", "092824.296000", "092824.296000", "092824.296000", "092824.312000", "092824.312000", "092824.312000", "092824.312000", "092824.312000"],
      "InstanceNumber": [1, 2, 3, 4, 5, 6, 7, 8, 9, 10, 11, 12, 13, 14, 15, 16, 17, 18, 19, 20, 21, 22, 23, 24, 25, 26, 27, 28, 29, 30, 31, 32, 33, 34, 35, 36, 37, 38, 39, 40, 41, 42, 43, 44, 45, 46, 47, 48, 49, 50, 51, 52, 53, 54, 55, 56, 57, 58, 59, 60, 61, 62, 63, 64, 65, 66, 67, 68, 69, 70, 71, 72, 73, 74, 75, 76, 77, 78, 79, 80, 81, 82, 83, 84, 85, 86, 87, 88, 89, 90, 91, 92, 93, 94, 95, 96, 97, 98, 99, 100, 101, 102, 103, 104, 105, 106, 107, 108, 109, 110, 111, 112, 113, 114, 115, 116, 117, 118, 119, 120, 121, 122, 123, 124, 125, 126, 127, 128, 129, 130, 131, 132, 133, 134, 135, 136, 137, 138, 139, 140, 141, 142, 143, 144, 145, 146, 147, 148, 149, 150, 151, 152, 153, 154, 155, 156, 157, 158, 159, 160, 161, 162, 163, 164],
      "LargestImagePixelValue": [1869, 1820, 1804, 1809, 1836, 1795, 1807, 1810, 1809, 1858, 1797, 1841, 1829, 1816, 1832, 1826, 1875, 1814, 1826, 1797, 1820, 1805, 1821, 1820, 1792, 1817, 1808, 1803, 1882, 1796, 1819, 1827, 1807, 1820, 1812, 1816, 1814, 1838, 1831, 1862, 1834, 1827, 1834, 1814, 1825, 1821, 1849, 1834, 1827, 1837, 1852, 1836, 1878, 1803, 1818, 1810, 1805, 1857, 1835, 1809, 1833, 1805, 1819, 1820, 1831, 1812, 1853, 1833, 1842, 1839, 1826, 1810, 1830, 1856, 1810, 1822, 1819, 1817, 1803, 1831, 1808, 1864, 1812, 1811, 1822, 1812, 1804, 1856, 1826, 1837, 1867, 1915, 1811, 1813, 1800, 1817, 1815, 1827, 1807, 1827, 1842, 1858, 1822, 1854, 1843, 1825, 1831, 1834, 1919, 1825, 1826, 1827, 1896, 1818, 1833, 1836, 1835, 1835, 1876, 1844, 1859, 1838, 1851, 1816, 1832, 1820, 1881, 1832, 1827, 1830, 1826, 1863, 1819, 1836, 1815, 1852, 1828, 1841, 1810, 1857, 1846, 1817, 1848, 1852, 1804, 1838, 1860, 1841, 1862, 1843, 1857, 1839, 1853, 1839, 1840, 1851, 1898, 1838, 1843, 1833, 1870, 1852, 1837, 1842],
      "WindowCenter": [736.0, 734.0, 734.0, 735.0, 735.0, 735.0, 736.0, 736.0, 736.0, 736.0, 736.0, 736.0, 736.0, 736.0, 736.0, 736.0, 737.0, 737.0, 736.0, 736.0, 735.0, 735.0, 735.0, 735.0, 735.0, 735.0, 735.0, 735.0, 737.0, 736.0, 736.0, 736.0, 734.0, 734.0, 734.0, 734.0, 735.0, 736.0, 736.0, 737.0, 737.0, 737.0, 737.0, 737.0, 736.0, 736.0, 736.0, 737.0, 737.0, 737.0, 737.0, 737.0, 738.0, 737.0, 737.0, 737.0, 736.0, 737.0, 736.0, 736.0, 735.0, 735.0, 735.0, 734.0, 735.0, 735.0, 736.0, 736.0, 736.0, 737.0, 737.0, 737.0, 737.0, 737.0, 736.0, 737.0, 736.0, 736.0, 736.0, 737.0, 736.0, 737.0, 737.0, 738.0, 737.0, 737.0, 736.0, 736.0, 736.0, 737.0, 737.0, 738.0, 737.0, 737.0, 736.0, 735.0, 734.0, 734.0, 735.0, 736.0, 736.0, 737.0, 737.0, 738.0, 738.0, 738.0, 738.0, 738.0, 738.0, 737.0, 737.0, 736.0, 737.0, 737.0, 737.0, 738.0, 738.0, 737.0, 736.0, 736.0, 736.0, 737.0, 738.0, 737.0, 737.0, 737.0, 738.0, 737.0, 738.0, 738.0, 738.0, 738.0, 737.0, 737.0, 738.0, 738.0, 738.0, 738.0, 738.0, 739.0, 739.0, 738.0, 738.0, 738.0, 737.0, 738.0, 738.0, 738.0, 739.0, 738.0, 739.0, 739.0, 739.0, 739.0, 740.0, 740.0, 739.0, 738.0, 738.0, 738.0, 738.0, 739.0, 739.0, 740.0],
      "WindowWidth": [1613.0, 1607.0, 1609.0, 1611.0, 1612.0, 1611.0, 1613.0, 1615.0, 1614.0, 1616.0, 1613.0, 1614.0, 1613.0, 1613.0, 1614.0, 1615.0, 1618.0, 1616.0, 1615.0, 1614.0, 1612.0, 1611.0, 1610.0, 1611.0, 1610.0, 1611.0, 1611.0, 1612.0, 1618.0, 1614.0, 1613.0, 1613.0, 1609.0, 1608.0, 1608.0, 1608.0, 1612.0, 1614.0, 1614.0, 1617.0, 1616.0, 1618.0, 1618.0, 1618.0, 1616.0, 1614.0, 1615.0, 1616.0, 1617.0, 1616.0, 1618.0, 1618.0, 1621.0, 1618.0, 1618.0, 1618.0, 1615.0, 1616.0, 1614.0, 1613.0, 1613.0, 1612.0, 1612.0, 1609.0, 1611.0, 1612.0, 1615.0, 1615.0, 1615.0, 1617.0, 1616.0, 1617.0, 1617.0, 1618.0, 1614.0, 1616.0, 1615.0, 1615.0, 1614.0, 1616.0, 1614.0, 1617.0, 1618.0, 1619.0, 1618.0, 1617.0, 1614.0, 1614.0, 1615.0, 1617.0, 1619.0, 1620.0, 1618.0, 1616.0, 1614.0, 1612.0, 1609.0, 1609.0, 1610.0, 1613.0, 1614.0, 1617.0, 1617.0, 1621.0, 1619.0, 1619.0, 1621.0, 1621.0, 1620.0, 1616.0, 1617.0, 1615.0, 1618.0, 1617.0, 1618.0, 1619.0, 1619.0, 1617.0, 1615.0, 1612.0, 1615.0, 1617.0, 1619.0, 1618.0, 1618.0, 1617.0, 1620.0, 1617.0, 1619.0, 1620.0, 1619.0, 1620.0, 1618.0, 1618.0, 1619.0, 1620.0, 1619.0, 1622.0, 1621.0, 1623.0, 1622.0, 1621.0, 1621.0, 1618.0, 1618.0, 1619.0, 1620.0, 1620.0, 1622.0, 1620.0, 1623.0, 1622.0, 1624.0, 1624.0, 1625.0, 1624.0, 1623.0, 1619.0, 1620.0, 1620.0, 1621.0, 1622.0, 1624.0, 1625.0]
    },
    "slices": {}
  }
}