{
  "AcquisitionMatrixPE": 64,
  "AcquisitionNumber": 1,
  "AcquisitionTime": "09:03:57.425000",
  "BandwidthPerPixelPhaseEncode": 33.967,
  "BaseResolution": 64,
  "CoilCombinationMethod": "Sum of Squares",
  "CoilString": "C:HEA;HEP",
  "ConversionSoftware": "dcm2niix",
  "ConversionSoftwareVersion": "v1.0.20220720",
  "DerivedVendorReportedEchoSpacing": 0.000460005,
  "DeviceSerialNumber": "35193",
  "DwellTime": 3.1e-06,
  "EchoTime": 0.03,
  "EffectiveEchoSpacing": 0.000460005,
  "FlipAngle": 90,
  "HeudiconvVersion": "1.1.6",
  "ImageOrientationPatientDICOM": [0.99914, 0.0104717, -0.0401296, -0.0104633, 0.999945, 0.000420252],
  "ImageOrientationText": "Tra>Sag(-2.3)",
  "ImageType": [
    "ORIGINAL",
    "PRIMARY",
    "M",
    "ND",
    "MOSAIC"
],
  "ImagingFrequency": 123.254,
  "InPlanePhaseEncodingDirectionDICOM": "COL",
  "InstitutionAddress": "Xinjiekouwai Street No 19,Beijing,Haidian District,CN,100875",
  "InstitutionName": "Beijing Normal Universtiy/5777c4/",
  "InstitutionalDepartmentName": "Department",
  "MRAcquisitionType": "2D",
  "MagneticFieldStrength": 3,
  "Manufacturer": "Siemens",
  "ManufacturersModelName": "TrioTim",
  "MatrixCoilMode": "SENSE",
  "Modality": "MR",
  "NonlinearGradientCorrection": false,
  "PartialFourier": 1,
  "PatientPosition": "HFS",
  "PercentPhaseFOV": 100,
  "PercentSampling": 100,
  "PhaseEncodingDirection": "j-",
  "PhaseEncodingSteps": 64,
  "PhaseResolution": 1,
  "PixelBandwidth": 2520,
  "ProcedureStepDescription": "BNU_cst_2015^Guo.TaoMei",
  "ProtocolName": "ge_func_3x3x4_164",
  "PulseSequenceDetails": "%SiemensSeq%\\ep2d_bold",
  "ReceiveCoilName": "HeadMatrix",
  "ReconMatrixPE": 64,
  "RepetitionTime": 2,
  "SAR": 0.133713,
  "ScanOptions": "FS",
  "ScanningSequence": "EP",
  "SequenceName": "*epfid2d1_64",
  "SequenceVariant": "SK",
  "SeriesDescription": "ge_func_3x3x4_164",
  "SeriesNumber": 2,
  "ShimSetting": [-4527, -19466, -9840, 1197, -120, -696, -175, 48],
  "SliceThickness": 4,
  "SliceTiming": [0, 1.035, 0.0625, 1.095, 0.1225, 1.1575, 0.1825, 1.2175, 0.245, 1.2775, 0.305, 1.34, 0.365, 1.4, 0.4275, 1.46, 0.4875, 1.5225, 0.5475, 1.5825, 0.61, 1.6425, 0.67, 1.705, 0.73, 1.765, 0.7925, 1.825, 0.8525, 1.8875, 0.9125, 1.9475, 0.975],
  "SoftwareVersions": "syngo MR B17",
  "SpacingBetweenSlices": 4.6,
  "StationName": "MRC35193",
  "TaskName": "LanguageControl",
  "TotalReadoutTime": 0.0289803,
  "TxRefAmp": 322.342,
  "dcmmeta_affine": [
    [-3.1223113536834717, -0.032697852700948715, -0.18460623919963837, 108.60418701171875],
    [-0.03272421658039093, 3.124828577041626, 7.407047419860646e-09, -83.67793273925781],
    [-0.1254049688577652, -0.0013132864842191339, 4.596293926239014, -60.71595001220703],
    [0.0, 0.0, 0.0, 1.0]
],
  "dcmmeta_reorient_transform": [
    [0.0, -1.0, 0.0, 63.0],
    [1.0, 0.0, 0.0, 0.0],
    [0.0, 0.0, 1.0, 0.0],
    [0.0, 0.0, 0.0, 1.0]
],
  "dcmmeta_shape": [64, 64, 33, 164],
  "dcmmeta_slice_dim": 2,
  "dcmmeta_version": 0.6,
  "global": {
    "const": {
      "AcquisitionMatrix": [64, 0, 0, 64],
      "AngioFlag": "N",
      "BitsAllocated": 16,
      "BitsStored": 12,
      "Columns": 384,
      "EchoNumbers": 1,
      "EchoTime": 30.0,
      "EchoTrainLength": 1,
      "FlipAngle": 90.0,
      "HighBit": 11,
      "ImageOrientationPatient": [0.99913960902473, 0.01047174876991, -0.040129592019, -0.0104633126133, 0.99994516973567, 0.0004202516573],
      "ImagePositionPatient": [-600.88236924316, -618.39472908339, -40.944018585734],
      "ImageType": [
        "ORIGINAL",
        "PRIMARY",
        "M",
        "ND",
        "MOSAIC"
],
      "ImagedNucleus": "1H",
      "ImagingFrequency": 123.253865,
      "InPlanePhaseEncodingDirection": "COL",
      "MRAcquisitionType": "2D",
      "MagneticFieldStrength": 3.0,
      "Manufacturer": "SIEMENS",
      "ManufacturerModelName": "TrioTim",
      "Modality": "MR",
      "NumberOfAverages": 1.0,
      "NumberOfPhaseEncodingSteps": 64,
      "PercentPhaseFieldOfView": 100.0,
      "PercentSampling": 100.0,
      "PerformedProcedureStepStartTime": "084901.437000",
      "PhotometricInterpretation": "MONOCHROME2",
      "PixelBandwidth": 2520.0,
      "PixelRepresentation": 0,
      "PixelSpacing": [3.125, 3.125],
      "ProtocolName": "ge_func_3x3x4_164",
      "RepetitionTime": 2000.0,
      "Rows": 384,
      "SAR": 0.13371253174541,
      "SamplesPerPixel": 1,
      "ScanOptions": "FS",
      "ScanningSequence": "EP",
      "SequenceName": "*epfid2d1_64",
      "SequenceVariant": "SK",
      "SeriesDescription": "ge_func_3x3x4_164",
      "SeriesNumber": 2,
      "SeriesTime": "090406.359000",
      "SliceLocation": -65.025519431584,
      "SliceThickness": 4.0,
      "SmallestImagePixelValue": 0,
      "SoftwareVersions": "syngo MR B17",
      "SpacingBetweenSlices": 4.5999999470644,
      "SpecificCharacterSet": "ISO_IR 100",
      "StudyID": "1",
      "StudyTime": "084901.296000",
      "TransmitCoilName": "Body",
      "VariableFlipAngleFlag": "N",
      "WindowCenterWidthExplanation": "Algo1",
      "dBdt": 0.0},
    "slices": {}
  },
  "time": {
    "samples": {
      "AcquisitionNumber": [1, 2, 3, 4, 5, 6, 7, 8, 9, 10, 11, 12, 13, 14, 15, 16, 17, 18, 19, 20, 21, 22, 23, 24, 25, 26, 27, 28, 29, 30, 31, 32, 33, 34, 35, 36, 37, 38, 39, 40, 41, 42, 43, 44, 45, 46, 47, 48, 49, 50, 51, 52, 53, 54, 55, 56, 57, 58, 59, 60, 61, 62, 63, 64, 65, 66, 67, 68, 69, 70, 71, 72, 73, 74, 75, 76, 77, 78, 79, 80, 81, 82, 83, 84, 85, 86, 87, 88, 89, 90, 91, 92, 93, 94, 95, 96, 97, 98, 99, 100, 101, 102, 103, 104, 105, 106, 107, 108, 109, 110, 111, 112, 113, 114, 115, 116, 117, 118, 119, 120, 121, 122, 123, 124, 125, 126, 127, 128, 129, 130, 131, 132, 133, 134, 135, 136, 137, 138, 139, 140, 141, 142, 143, 144, 145, 146, 147, 148, 149, 150, 151, 152, 153, 154, 155, 156, 157, 158, 159, 160, 161, 162, 163, 164],
      "AcquisitionTime": ["090357.425000", "090359.435000", "090401.442500", "090403.450000", "090405.457500", "090407.465000", "090409.475000", "090411.482500", "090413.490000", "090415.497500", "090417.507500", "090419.515000", "090421.522500", "090423.530000", "090425.537500", "090427.547500", "090429.555000", "090431.562500", "090433.570000", "090435.577500", "090437.587500", "090439.595000", "090441.602500", "090443.610000", "090445.620000", "090447.627500", "090449.635000", "090451.642500", "090453.650000", "090455.660000", "090457.667500", "090459.675000", "090501.682500", "090503.690000", "090505.700000", "090507.707500", "090509.715000", "090511.722500", "090513.732500", "090515.740000", "090517.747500", "090519.755000", "090521.762500", "090523.772500", "090525.780000", "090527.787500", "090529.795000", "090531.802500", "090533.812500", "090535.820000", "090537.827500", "090539.835000", "090541.842500", "090543.852500", "090545.860000", "090547.867500", "090549.875000", "090551.885000", "090553.892500", "090555.900000", "090557.907500", "090559.915000", "090601.925000", "090603.932500", "090605.940000", "090607.947500", "090609.955000", "090611.965000", "090613.972500", "090615.980000", "090617.987500", "090619.997500", "090622.005000", "090624.012500", "090626.020000", "090628.027500", "090630.037500", "090632.045000", "090634.052500", "090636.060000", "090638.067500", "090640.077500", "090642.085000", "090644.092500", "090646.100000", "090648.110000", "090650.117500", "090652.125000", "090654.132500", "090656.140000", "090658.150000", "090700.157500", "090702.165000", "090704.172500", "090706.180000", "090708.190000", "090710.197500", "090712.205000", "090714.212500", "090716.220000", "090718.230000", "090720.237500", "090722.245000", "090724.252500", "090726.262500", "090728.270000", "090730.277500", "090732.285000", "090734.292500", "090736.302500", "090738.310000", "090740.317500", "090742.325000", "090744.332500", "090746.342500", "090748.350000", "090750.357500", "090752.365000", "090754.375000", "090756.382500", "090758.390000", "090800.397500", "090802.405000", "090804.415000", "090806.422500", "090808.430000", "090810.437500", "090812.445000", "090814.455000", "090816.462500", "090818.470000", "090820.477500", "090822.487500", "090824.495000", "090826.502500", "090828.510000", "090830.517500", "090832.527500", "090834.535000", "090836.542500", "090838.550000", "090840.557500", "090842.567500", "090844.575000", "090846.582500", "090848.590000", "090850.600000", "090852.607500", "090854.615000", "090856.622500", "090858.630000", "090900.640000", "090902.647500", "090904.655000", "090906.662500", "090908.670000", "090910.680000", "090912.687500", "090914.695000", "090916.702500", "090918.710000", "090920.720000", "090922.727500", "090924.735000"],
      "ContentTime": ["090406.375000", "090406.390000", "090406.390000", "090406.390000", "090446.359000", "090446.359000", "090446.359000", "090446.359000", "090446.375000", "090446.375000", "090446.375000", "090446.375000", "090446.375000", "090446.390000", "090446.390000", "090446.390000", "090446.390000", "090446.390000", "090446.390000", "090446.390000", "090446.390000", "090446.390000", "090446.406000", "090446.406000", "090526.359000", "090526.359000", "090526.359000", "090526.375000", "090526.375000", "090526.375000", "090526.375000", "090526.375000", "090526.375000", "090526.390000", "090526.390000", "090526.390000", "090526.390000", "090526.390000", "090526.390000", "090526.390000", "090526.390000", "090526.406000", "090526.406000", "090526.406000", "090606.359000", "090606.359000", "090606.359000", "090606.359000", "090606.359000", "090606.375000", "090606.375000", "090606.375000", "090606.375000", "090606.375000", "090606.375000", "090606.375000", "090606.375000", "090606.390000", "090606.390000", "090606.390000", "090606.390000", "090606.390000", "090606.390000", "090606.390000", "090646.359000", "090646.359000", "090646.359000", "090646.359000", "090646.359000", "090646.375000", "090646.375000", "090646.375000", "090646.375000", "090646.375000", "090646.390000", "090646.390000", "090646.390000", "090646.390000", "090646.406000", "090646.406000", "090646.406000", "090646.406000", "090646.406000", "090646.406000", "090726.359000", "090726.359000", "090726.359000", "090726.359000", "090726.359000", "090726.375000", "090726.375000", "090726.375000", "090726.375000", "090726.375000", "090726.390000", "090726.390000", "090726.390000", "090726.390000", "090726.390000", "090726.390000", "090726.390000", "090726.390000", "090726.390000", "090726.406000", "090806.359000", "090806.359000", "090806.359000", "090806.359000", "090806.359000", "090806.375000", "090806.375000", "090806.375000", "090806.375000", "090806.375000", "090806.375000", "090806.375000", "090806.375000", "090806.390000", "090806.390000", "090806.390000", "090806.390000", "090806.390000", "090806.390000", "090806.390000", "090846.359000", "090846.359000", "090846.375000", "090846.375000", "090846.375000", "090846.375000", "090846.375000", "090846.390000", "090846.390000", "090846.390000", "090846.390000", "090846.390000", "090846.390000", "090846.406000", "090846.406000", "090846.406000", "090846.406000", "090846.406000", "090846.406000", "090846.406000", "090925.921000", "090925.921000", "090925.921000", "090925.921000", "090925.921000", "090925.921000", "090925.937000", "090925.937000", "090925.937000", "090925.937000", "090925.937000", "090925.937000", "090925.937000", "090925.953000", "090925.953000", "090925.953000", "090925.953000", "090925.953000", "090925.953000", "090925.953000"],
      "InstanceCreationTime": ["090406.375000", "090406.390000", "090406.390000", "090406.390000", "090446.359000", "090446.359000", "090446.359000", "090446.359000", "090446.375000", "090446.375000", "090446.375000", "090446.375000", "090446.375000", "090446.390000", "090446.390000", "090446.390000", "090446.390000", "090446.390000", "090446.390000", "090446.390000", "090446.390000", "090446.390000", "090446.406000", "090446.406000", "090526.359000", "090526.359000", "090526.359000", "090526.375000", "090526.375000", "090526.375000", "090526.375000", "090526.375000", "090526.375000", "090526.390000", "090526.390000", "090526.390000", "090526.390000", "090526.390000", "090526.390000", "090526.390000", "090526.390000", "090526.406000", "090526.406000", "090526.406000", "090606.359000", "090606.359000", "090606.359000", "090606.359000", "090606.359000", "090606.375000", "090606.375000", "090606.375000", "090606.375000", "090606.375000", "090606.375000", "090606.375000", "090606.375000", "090606.390000", "090606.390000", "090606.390000", "090606.390000", "090606.390000", "090606.390000", "090606.390000", "090646.359000", "090646.359000", "090646.359000", "090646.359000", "090646.359000", "090646.375000", "090646.375000", "090646.375000", "090646.375000", "090646.375000", "090646.390000", "090646.390000", "090646.390000", "090646.390000", "090646.406000", "090646.406000", "090646.406000", "090646.406000", "090646.406000", "090646.406000", "090726.359000", "090726.359000", "090726.359000", "090726.359000", "090726.359000", "090726.375000", "090726.375000", "090726.375000", "090726.375000", "090726.375000", "090726.390000", "090726.390000", "090726.390000", "090726.390000", "090726.390000", "090726.390000", "090726.390000", "090726.390000", "090726.390000", "090726.406000", "090806.359000", "090806.359000", "090806.359000", "090806.359000", "090806.359000", "090806.375000", "090806.375000", "090806.375000", "090806.375000", "090806.375000", "090806.375000", "090806.375000", "090806.375000", "090806.390000", "090806.390000", "090806.390000", "090806.390000", "090806.390000", "090806.390000", "090806.390000", "090846.359000", "090846.359000", "090846.375000", "090846.375000", "090846.375000", "090846.375000", "090846.375000", "090846.390000", "090846.390000", "090846.390000", "090846.390000", "090846.390000", "090846.390000", "090846.406000", "090846.406000", "090846.406000", "090846.406000", "090846.406000", "090846.406000", "090846.406000", "090925.921000", "090925.921000", "090925.921000", "090925.921000", "090925.921000", "090925.921000", "090925.937000", "090925.937000", "090925.937000", "090925.937000", "090925.937000", "090925.937000", "090925.937000", "090925.953000", "090925.953000", "090925.953000", "090925.953000", "090925.953000", "090925.953000", "090925.953000"],
      "InstanceNumber": [1, 2, 3, 4, 5, 6, 7, 8, 9, 10, 11, 12, 13, 14, 15, 16, 17, 18, 19, 20, 21, 22, 23, 24, 25, 26, 27, 28, 29, 30, 31, 32, 33, 34, 35, 36, 37, 38, 39, 40, 41, 42, 43, 44, 45, 46, 47, 48, 49, 50, 51, 52, 53, 54, 55, 56, 57, 58, 59, 60, 61, 62, 63, 64, 65, 66, 67, 68, 69, 70, 71, 72, 73, 74, 75, 76, 77, 78, 79, 80, 81, 82, 83, 84, 85, 86, 87, 88, 89, 90, 91, 92, 93, 94, 95, 96, 97, 98, 99, 100, 101, 102, 103, 104, 105, 106, 107, 108, 109, 110, 111, 112, 113, 114, 115, 116, 117, 118, 119, 120, 121, 122, 123, 124, 125, 126, 127, 128, 129, 130, 131, 132, 133, 134, 135, 136, 137, 138, 139, 140, 141, 142, 143, 144, 145, 146, 147, 148, 149, 150, 151, 152, 153, 154, 155, 156, 157, 158, 159, 160, 161, 162, 163, 164],
      "LargestImagePixelValue": [1960, 1880, 1900, 1895, 1868, 1901, 1853, 1852, 1875, 1861, 1898, 1886, 1903, 1902, 1906, 1895, 1904, 1890, 1876, 1885, 1900, 1912, 1924, 1923, 1888, 1922, 1885, 1906, 1887, 1964, 1940, 1878, 1891, 1873, 1924, 1946, 1907, 1884, 1921, 1930, 1900, 1922, 1935, 1910, 1906, 1895, 1889, 1915, 1873, 1860, 1932, 1903, 1933, 1895, 1922, 1908, 1880, 1913, 1902, 1909, 1919, 1954, 1911, 1923, 1890, 1920, 1896, 1917, 1962, 1886, 1945, 1908, 1909, 1860, 1914, 1948, 1897, 1905, 1911, 1884, 1890, 1937, 1994, 1914, 1899, 1918, 1947, 1891, 1940, 1991, 1928, 1924, 1900, 1951, 1897, 1893, 1934, 1981, 1928, 1940, 1909, 1965, 1934, 1922, 1963, 1926, 1936, 1882, 1956, 1955, 1933, 1947, 1956, 1905, 1930, 1952, 1931, 1942, 1978, 1945, 1881, 1894, 1904, 1929, 1907, 1907, 1984, 1901, 1893, 1898, 1925, 1962, 1886, 1952, 1958, 1879, 1954, 1928, 1936, 1963, 1923, 1937, 1919, 1923, 1921, 1929, 1947, 1865, 1962, 1913, 1884, 1903, 1903, 1931, 1932, 1932, 1943, 1937, 1910, 1947, 1906, 1945, 1936, 1919],
      "WindowCenter": [738.0, 735.0, 736.0, 736.0, 735.0, 734.0, 734.0, 733.0, 733.0, 734.0, 733.0, 733.0, 734.0, 734.0, 734.0, 733.0, 734.0, 733.0, 732.0, 732.0, 732.0, 734.0, 735.0, 735.0, 734.0, 733.0, 732.0, 731.0, 732.0, 734.0, 734.0, 734.0, 733.0, 732.0, 732.0, 732.0, 732.0, 734.0, 734.0, 733.0, 733.0, 732.0, 734.0, 734.0, 734.0, 733.0, 733.0, 732.0, 732.0, 732.0, 732.0, 732.0, 733.0, 732.0, 732.0, 733.0, 733.0, 733.0, 733.0, 733.0, 732.0, 733.0, 732.0, 732.0, 733.0, 732.0, 732.0, 733.0, 733.0, 734.0, 735.0, 735.0, 733.0, 732.0, 731.0, 732.0, 731.0, 732.0, 732.0, 733.0, 733.0, 734.0, 734.0, 733.0, 732.0, 732.0, 733.0, 732.0, 733.0, 733.0, 732.0, 732.0, 732.0, 733.0, 732.0, 732.0, 732.0, 733.0, 733.0, 733.0, 733.0, 732.0, 733.0, 734.0, 734.0, 733.0, 733.0, 733.0, 733.0, 733.0, 733.0, 733.0, 733.0, 733.0, 734.0, 734.0, 734.0, 732.0, 733.0, 734.0, 734.0, 734.0, 735.0, 735.0, 734.0, 733.0, 733.0, 734.0, 734.0, 734.0, 733.0, 733.0, 732.0, 733.0, 734.0, 734.0, 734.0, 735.0, 735.0, 735.0, 734.0, 733.0, 733.0, 733.0, 733.0, 733.0, 733.0, 733.0, 734.0, 735.0, 735.0, 735.0, 735.0, 735.0, 734.0, 733.0, 732.0, 733.0, 734.0, 735.0, 734.0, 734.0, 734.0, 734.0],
      "WindowWidth": [1621.0, 1614.0, 1614.0, 1615.0, 1611.0, 1610.0, 1608.0, 1606.0, 1606.0, 1608.0, 1607.0, 1607.0, 1609.0, 1608.0, 1610.0, 1607.0, 1608.0, 1606.0, 1604.0, 1603.0, 1605.0, 1610.0, 1613.0, 1613.0, 1610.0, 1607.0, 1603.0, 1601.0, 1605.0, 1610.0, 1609.0, 1609.0, 1608.0, 1605.0, 1604.0, 1604.0, 1605.0, 1609.0, 1610.0, 1609.0, 1607.0, 1604.0, 1609.0, 1609.0, 1609.0, 1608.0, 1606.0, 1604.0, 1602.0, 1603.0, 1605.0, 1605.0, 1607.0, 1603.0, 1604.0, 1606.0, 1606.0, 1605.0, 1606.0, 1605.0, 1605.0, 1606.0, 1604.0, 1605.0, 1605.0, 1605.0, 1604.0, 1607.0, 1608.0, 1609.0, 1613.0, 1611.0, 1607.0, 1603.0, 1602.0, 1603.0, 1602.0, 1603.0, 1605.0, 1606.0, 1607.0, 1610.0, 1610.0, 1605.0, 1604.0, 1604.0, 1606.0, 1604.0, 1606.0, 1607.0, 1604.0, 1605.0, 1604.0, 1605.0, 1605.0, 1603.0, 1605.0, 1608.0, 1607.0, 1606.0, 1605.0, 1605.0, 1607.0, 1609.0, 1610.0, 1607.0, 1607.0, 1606.0, 1606.0, 1608.0, 1607.0, 1606.0, 1608.0, 1606.0, 1609.0, 1609.0, 1608.0, 1605.0, 1607.0, 1608.0, 1609.0, 1611.0, 1613.0, 1612.0, 1608.0, 1608.0, 1608.0, 1609.0, 1610.0, 1609.0, 1607.0, 1607.0, 1603.0, 1607.0, 1610.0, 1610.0, 1609.0, 1611.0, 1612.0, 1612.0, 1608.0, 1607.0, 1607.0, 1605.0, 1606.0, 1605.0, 1606.0, 1607.0, 1609.0, 1611.0, 1612.0, 1612.0, 1612.0, 1612.0, 1608.0, 1606.0, 1605.0, 1608.0, 1609.0, 1612.0, 1610.0, 1611.0, 1608.0, 1608.0]
    },
    "slices": {}
  }
}