{
  "AcquisitionMatrixPE": 64,
  "AcquisitionNumber": 1,
  "AcquisitionTime": "08:36:24.995000",
  "BandwidthPerPixelPhaseEncode": 33.967,
  "BaseResolution": 64,
  "CoilCombinationMethod": "Sum of Squares",
  "CoilString": "C:HEA;HEP",
  "ConversionSoftware": "dcm2niix",
  "ConversionSoftwareVersion": "v1.0.20220720",
  "DerivedVendorReportedEchoSpacing": 0.000460005,
  "DeviceSerialNumber": "35193",
  "DwellTime": 3.1e-06,
  "EchoTime": 0.03,
  "EffectiveEchoSpacing": 0.000460005,
  "FlipAngle": 90,
  "HeudiconvVersion": "1.1.6",
  "ImageOrientationPatientDICOM": [1, 0, 0, 0, 1, 0],
  "ImageOrientationText": "Tra",
  "ImageType": [
    "ORIGINAL",
    "PRIMARY",
    "M",
    "ND",
    "MOSAIC"
],
  "ImagingFrequency": 123.254,
  "InPlanePhaseEncodingDirectionDICOM": "COL",
  "InstitutionAddress": "Xinjiekouwai Street No 19,Beijing,Haidian District,CN,100875",
  "InstitutionName": "BNU MRI Center",
  "InstitutionalDepartmentName": "Department",
  "MRAcquisitionType": "2D",
  "MagneticFieldStrength": 3,
  "Manufacturer": "Siemens",
  "ManufacturersModelName": "TrioTim",
  "MatrixCoilMode": "SENSE",
  "Modality": "MR",
  "NonlinearGradientCorrection": false,
  "PartialFourier": 1,
  "PatientPosition": "HFS",
  "PercentPhaseFOV": 100,
  "PercentSampling": 100,
  "PhaseEncodingDirection": "j-",
  "PhaseEncodingSteps": 64,
  "PhaseResolution": 1,
  "PixelBandwidth": 2520,
  "ProcedureStepDescription": "BNU_cst_2015^Guo.TaoMei",
  "ProtocolName": "ge_func_3x3x4_164",
  "PulseSequenceDetails": "%SiemensSeq%\\ep2d_bold",
  "ReceiveCoilName": "HeadMatrix",
  "ReconMatrixPE": 64,
  "RepetitionTime": 2,
  "SAR": 0.134159,
  "ScanOptions": "FS",
  "ScanningSequence": "EP",
  "SequenceName": "*epfid2d1_64",
  "SequenceVariant": "SK",
  "SeriesDescription": "ge_func_3x3x4_164",
  "SeriesNumber": 2,
  "ShimSetting": [-4529, -19341, -9812, 917, -67, -817, -380, -139],
  "SliceThickness": 4,
  "SliceTiming": [0, 1.035, 0.06, 1.095, 0.1225, 1.155, 0.1825, 1.2175, 0.2425, 1.2775, 0.305, 1.3375, 0.365, 1.4, 0.425, 1.46, 0.4875, 1.52, 0.5475, 1.5825, 0.6075, 1.6425, 0.67, 1.7025, 0.73, 1.765, 0.79, 1.825, 0.8525, 1.885, 0.9125, 1.9475, 0.9725],
  "SoftwareVersions": "syngo MR B17",
  "SpacingBetweenSlices": 4.6,
  "StationName": "MRC35193",
  "TaskName": "CognitiveControl",
  "TotalReadoutTime": 0.0289803,
  "TxRefAmp": 370.862,
  "dcmmeta_affine": [
    [-3.125, 0.0, 0.0, 110.1204833984375],
    [0.0, 3.125, 0.0, -86.07981872558594],
    [0.0, 0.0, 4.599999904632568, -84.39517974853516],
    [0.0, 0.0, 0.0, 1.0]
],
  "dcmmeta_reorient_transform": [
    [0.0, -1.0, 0.0, 63.0],
    [1.0, 0.0, 0.0, 0.0],
    [0.0, 0.0, 1.0, 0.0],
    [0.0, 0.0, 0.0, 1.0]
],
  "dcmmeta_shape": [64, 64, 33, 164],
  "dcmmeta_slice_dim": 2,
  "dcmmeta_version": 0.6,
  "global": {
    "const": {
      "AcquisitionMatrix": [64, 0, 0, 64],
      "AngioFlag": "N",
      "BitsAllocated": 16,
      "BitsStored": 12,
      "Columns": 384,
      "EchoNumbers": 1,
      "EchoTime": 30.0,
      "EchoTrainLength": 1,
      "FlipAngle": 90.0,
      "HighBit": 11,
      "ImageOrientationPatient": [1.0, 0.0, 0.0, 0.0, 1.0, 0.0],
      "ImagePositionPatient": [-610.12048149109, -610.79518032074, -84.395179748535],
      "ImageType": [
        "ORIGINAL",
        "PRIMARY",
        "M",
        "ND",
        "MOSAIC"
],
      "ImagedNucleus": "1H",
      "ImagingFrequency": 123.253806,
      "InPlanePhaseEncodingDirection": "COL",
      "MRAcquisitionType": "2D",
      "MagneticFieldStrength": 3.0,
      "Manufacturer": "SIEMENS",
      "ManufacturerModelName": "TrioTim",
      "Modality": "MR",
      "NumberOfAverages": 1.0,
      "NumberOfPhaseEncodingSteps": 64,
      "PercentPhaseFieldOfView": 100.0,
      "PercentSampling": 100.0,
      "PerformedProcedureStepStartTime": "082947.812000",
      "PhotometricInterpretation": "MONOCHROME2",
      "PixelBandwidth": 2520.0,
      "PixelRepresentation": 0,
      "PixelSpacing": [3.125, 3.125],
      "ProtocolName": "ge_func_3x3x4_164",
      "RepetitionTime": 2000.0,
      "Rows": 384,
      "SAR": 0.13415922760085,
      "SamplesPerPixel": 1,
      "ScanOptions": "FS",
      "ScanningSequence": "EP",
      "SequenceName": "*epfid2d1_64",
      "SequenceVariant": "SK",
      "SeriesDescription": "ge_func_3x3x4_164",
      "SeriesNumber": 2,
      "SeriesTime": "083632.000000",
      "SliceLocation": -84.395179748535,
      "SliceThickness": 4.0,
      "SmallestImagePixelValue": 0,
      "SoftwareVersions": "syngo MR B17",
      "SpacingBetweenSlices": 4.6000000238419,
      "SpecificCharacterSet": "ISO_IR 100",
      "StudyID": "1",
      "StudyTime": "082946.968000",
      "TransmitCoilName": "Body",
      "VariableFlipAngleFlag": "N",
      "WindowCenterWidthExplanation": "Algo1",
      "dBdt": 0.0},
    "slices": {}
  },
  "time": {
    "samples": {
      "AcquisitionNumber": [1, 2, 3, 4, 5, 6, 7, 8, 9, 10, 11, 12, 13, 14, 15, 16, 17, 18, 19, 20, 21, 22, 23, 24, 25, 26, 27, 28, 29, 30, 31, 32, 33, 34, 35, 36, 37, 38, 39, 40, 41, 42, 43, 44, 45, 46, 47, 48, 49, 50, 51, 52, 53, 54, 55, 56, 57, 58, 59, 60, 61, 62, 63, 64, 65, 66, 67, 68, 69, 70, 71, 72, 73, 74, 75, 76, 77, 78, 79, 80, 81, 82, 83, 84, 85, 86, 87, 88, 89, 90, 91, 92, 93, 94, 95, 96, 97, 98, 99, 100, 101, 102, 103, 104, 105, 106, 107, 108, 109, 110, 111, 112, 113, 114, 115, 116, 117, 118, 119, 120, 121, 122, 123, 124, 125, 126, 127, 128, 129, 130, 131, 132, 133, 134, 135, 136, 137, 138, 139, 140, 141, 142, 143, 144, 145, 146, 147, 148, 149, 150, 151, 152, 153, 154, 155, 156, 157, 158, 159, 160, 161, 162, 163, 164],
      "AcquisitionTime": ["083624.995000", "083627.002500", "083629.010000", "083631.020000", "083633.027500", "083635.035000", "083637.042500", "083639.052500", "083641.060000", "083643.067500", "083645.075000", "083647.082500", "083649.092500", "083651.100000", "083653.107500", "083655.115000", "083657.122500", "083659.132500", "083701.140000", "083703.147500", "083705.155000", "083707.165000", "083709.172500", "083711.180000", "083713.187500", "083715.195000", "083717.205000", "083719.212500", "083721.220000", "083723.227500", "083725.235000", "083727.245000", "083729.252500", "083731.260000", "083733.267500", "083735.275000", "083737.285000", "083739.292500", "083741.300000", "083743.307500", "083745.317500", "083747.325000", "083749.332500", "083751.340000", "083753.347500", "083755.357500", "083757.365000", "083759.372500", "083801.380000", "083803.387500", "083805.397500", "083807.405000", "083809.412500", "083811.420000", "083813.430000", "083815.437500", "083817.445000", "083819.452500", "083821.460000", "083823.470000", "083825.477500", "083827.485000", "083829.492500", "083831.500000", "083833.510000", "083835.517500", "083837.525000", "083839.532500", "083841.542500", "083843.550000", "083845.557500", "083847.565000", "083849.572500", "083851.582500", "083853.590000", "083855.597500", "083857.605000", "083859.612500", "083901.622500", "083903.630000", "083905.637500", "083907.645000", "083909.655000", "083911.662500", "083913.670000", "083915.677500", "083917.685000", "083919.695000", "083921.702500", "083923.710000", "083925.717500", "083927.725000", "083929.735000", "083931.742500", "083933.750000", "083935.757500", "083937.765000", "083939.775000", "083941.782500", "083943.790000", "083945.797500", "083947.807500", "083949.815000", "083951.822500", "083953.830000", "083955.837500", "083957.847500", "083959.855000", "084001.862500", "084003.870000", "084005.877500", "084007.887500", "084009.895000", "084011.902500", "084013.910000", "084015.920000", "084017.927500", "084019.935000", "084021.942500", "084023.950000", "084025.960000", "084027.967500", "084029.975000", "084031.982500", "084033.990000", "084036.000000", "084038.007500", "084040.015000", "084042.022500", "084044.032500", "084046.040000", "084048.047500", "084050.055000", "084052.062500", "084054.072500", "084056.080000", "084058.087500", "084100.095000", "084102.102500", "084104.112500", "084106.120000", "084108.127500", "084110.135000", "084112.142500", "084114.152500", "084116.160000", "084118.167500", "084120.175000", "084122.185000", "084124.192500", "084126.200000", "084128.207500", "084130.215000", "084132.225000", "084134.232500", "084136.240000", "084138.247500", "084140.255000", "084142.265000", "084144.272500", "084146.280000", "084148.287500", "084150.297500", "084152.305000"],
      "ContentTime": ["083632.000000", "083632.000000", "083632.000000", "083711.984000", "083711.984000", "083711.984000", "083711.984000", "083711.984000", "083712.000000", "083712.000000", "083712.000000", "083712.000000", "083712.000000", "083712.000000", "083712.000000", "083712.000000", "083712.000000", "083712.015000", "083712.015000", "083712.015000", "083712.015000", "083712.015000", "083712.031000", "083751.984000", "083751.984000", "083751.984000", "083751.984000", "083751.984000", "083752.000000", "083752.000000", "083752.000000", "083752.000000", "083752.000000", "083752.015000", "083752.015000", "083752.015000", "083752.015000", "083752.015000", "083752.015000", "083752.015000", "083752.015000", "083752.031000", "083752.031000", "083831.984000", "083831.984000", "083831.984000", "083831.984000", "083831.984000", "083832.000000", "083832.000000", "083832.000000", "083832.000000", "083832.000000", "083832.000000", "083832.000000", "083832.000000", "083832.000000", "083832.015000", "083832.015000", "083832.015000", "083832.015000", "083832.015000", "083832.015000", "083911.984000", "083911.984000", "083911.984000", "083911.984000", "083911.984000", "083911.984000", "083912.000000", "083912.000000", "083912.000000", "083912.000000", "083912.000000", "083912.000000", "083912.000000", "083912.015000", "083912.015000", "083912.015000", "083912.015000", "083912.015000", "083912.015000", "083912.031000", "083951.984000", "083951.984000", "083951.984000", "083951.984000", "083952.000000", "083952.000000", "083952.000000", "083952.000000", "083952.000000", "083952.015000", "083952.015000", "083952.015000", "083952.015000", "083952.015000", "083952.031000", "083952.031000", "083952.031000", "083952.031000", "083952.031000", "083952.031000", "084031.984000", "084031.984000", "084031.984000", "084031.984000", "084031.984000", "084032.000000", "084032.000000", "084032.000000", "084032.000000", "084032.000000", "084032.015000", "084032.015000", "084032.015000", "084032.015000", "084032.015000", "084032.015000", "084032.015000", "084032.015000", "084032.031000", "084032.031000", "084111.984000", "084111.984000", "084111.984000", "084112.000000", "084112.000000", "084112.000000", "084112.000000", "084112.015000", "084112.015000", "084112.015000", "084112.015000", "084112.015000", "084112.015000", "084112.031000", "084112.031000", "084112.031000", "084112.031000", "084112.031000", "084112.031000", "084112.031000", "084151.984000", "084151.984000", "084151.984000", "084151.984000", "084151.984000", "084152.000000", "084152.000000", "084152.000000", "084152.000000", "084152.000000", "084152.000000", "084152.000000", "084152.000000", "084152.000000", "084152.015000", "084152.015000", "084152.015000", "084152.015000", "084152.015000", "084152.015000", "084153.890000"],
      "InstanceCreationTime": ["083632.000000", "083632.000000", "083632.000000", "083711.984000", "083711.984000", "083711.984000", "083711.984000", "083711.984000", "083712.000000", "083712.000000", "083712.000000", "083712.000000", "083712.000000", "083712.000000", "083712.000000", "083712.000000", "083712.000000", "083712.015000", "083712.015000", "083712.015000", "083712.015000", "083712.015000", "083712.031000", "083751.984000", "083751.984000", "083751.984000", "083751.984000", "083751.984000", "083752.000000", "083752.000000", "083752.000000", "083752.000000", "083752.000000", "083752.015000", "083752.015000", "083752.015000", "083752.015000", "083752.015000", "083752.015000", "083752.015000", "083752.015000", "083752.031000", "083752.031000", "083831.984000", "083831.984000", "083831.984000", "083831.984000", "083831.984000", "083832.000000", "083832.000000", "083832.000000", "083832.000000", "083832.000000", "083832.000000", "083832.000000", "083832.000000", "083832.000000", "083832.015000", "083832.015000", "083832.015000", "083832.015000", "083832.015000", "083832.015000", "083911.984000", "083911.984000", "083911.984000", "083911.984000", "083911.984000", "083911.984000", "083912.000000", "083912.000000", "083912.000000", "083912.000000", "083912.000000", "083912.000000", "083912.000000", "083912.015000", "083912.015000", "083912.015000", "083912.015000", "083912.015000", "083912.015000", "083912.031000", "083951.984000", "083951.984000", "083951.984000", "083951.984000", "083952.000000", "083952.000000", "083952.000000", "083952.000000", "083952.000000", "083952.015000", "083952.015000", "083952.015000", "083952.015000", "083952.015000", "083952.031000", "083952.031000", "083952.031000", "083952.031000", "083952.031000", "083952.031000", "084031.984000", "084031.984000", "084031.984000", "084031.984000", "084031.984000", "084032.000000", "084032.000000", "084032.000000", "084032.000000", "084032.000000", "084032.015000", "084032.015000", "084032.015000", "084032.015000", "084032.015000", "084032.015000", "084032.015000", "084032.015000", "084032.031000", "084032.031000", "084111.984000", "084111.984000", "084111.984000", "084112.000000", "084112.000000", "084112.000000", "084112.000000", "084112.015000", "084112.015000", "084112.015000", "084112.015000", "084112.015000", "084112.015000", "084112.031000", "084112.031000", "084112.031000", "084112.031000", "084112.031000", "084112.031000", "084112.031000", "084151.984000", "084151.984000", "084151.984000", "084151.984000", "084151.984000", "084152.000000", "084152.000000", "084152.000000", "084152.000000", "084152.000000", "084152.000000", "084152.000000", "084152.000000", "084152.000000", "084152.015000", "084152.015000", "084152.015000", "084152.015000", "084152.015000", "084152.015000", "084153.890000"],
      "InstanceNumber": [1, 2, 3, 4, 5, 6, 7, 8, 9, 10, 11, 12, 13, 14, 15, 16, 17, 18, 19, 20, 21, 22, 23, 24, 25, 26, 27, 28, 29, 30, 31, 32, 33, 34, 35, 36, 37, 38, 39, 40, 41, 42, 43, 44, 45, 46, 47, 48, 49, 50, 51, 52, 53, 54, 55, 56, 57, 58, 59, 60, 61, 62, 63, 64, 65, 66, 67, 68, 69, 70, 71, 72, 73, 74, 75, 76, 77, 78, 79, 80, 81, 82, 83, 84, 85, 86, 87, 88, 89, 90, 91, 92, 93, 94, 95, 96, 97, 98, 99, 100, 101, 102, 103, 104, 105, 106, 107, 108, 109, 110, 111, 112, 113, 114, 115, 116, 117, 118, 119, 120, 121, 122, 123, 124, 125, 126, 127, 128, 129, 130, 131, 132, 133, 134, 135, 136, 137, 138, 139, 140, 141, 142, 143, 144, 145, 146, 147, 148, 149, 150, 151, 152, 153, 154, 155, 156, 157, 158, 159, 160, 161, 162, 163, 164],
      "LargestImagePixelValue": [2043, 1998, 1973, 1965, 1936, 1954, 1940, 1940, 1975, 1936, 1938, 1975, 1967, 1942, 2017, 1938, 1946, 1954, 1959, 1933, 1957, 1937, 1935, 1929, 1937, 1949, 1937, 1934, 1947, 1962, 1938, 1954, 1945, 1937, 1934, 1945, 1950, 1942, 1970, 1967, 1969, 1941, 1958, 1950, 1960, 1962, 1955, 1973, 1954, 1966, 1950, 1955, 1968, 1952, 1957, 1945, 1935, 1933, 1952, 1957, 1970, 1942, 1951, 1953, 1941, 1953, 1964, 1961, 1942, 1948, 1951, 1953, 1953, 1951, 1955, 1947, 1952, 1949, 1939, 1953, 1963, 1944, 1947, 1956, 1956, 1938, 1960, 1961, 1939, 1953, 1942, 1961, 1947, 1948, 1961, 1955, 1958, 1949, 1935, 1968, 1934, 1966, 1960, 1952, 1949, 1952, 1942, 1944, 1936, 1937, 1939, 1942, 1922, 1935, 1946, 1949, 1945, 1940, 1937, 1940, 1931, 1957, 1935, 1951, 1942, 1941, 2035, 1928, 1936, 1947, 1946, 1952, 1936, 1949, 1965, 1935, 1943, 1942, 1950, 1945, 1934, 1941, 1948, 1923, 1921, 1944, 1945, 1947, 1929, 1932, 1934, 1928, 1924, 1936, 1938, 1942, 1935, 1943, 1928, 1920, 1940, 1935, 1936, 1937],
      "WindowCenter": [722.0, 720.0, 720.0, 720.0, 720.0, 720.0, 720.0, 720.0, 720.0, 720.0, 720.0, 721.0, 721.0, 720.0, 721.0, 720.0, 720.0, 720.0, 720.0, 720.0, 720.0, 720.0, 721.0, 720.0, 721.0, 720.0, 720.0, 720.0, 720.0, 719.0, 719.0, 719.0, 719.0, 719.0, 720.0, 720.0, 720.0, 720.0, 719.0, 720.0, 719.0, 719.0, 719.0, 719.0, 719.0, 719.0, 720.0, 720.0, 720.0, 720.0, 720.0, 720.0, 720.0, 720.0, 721.0, 721.0, 720.0, 720.0, 720.0, 720.0, 720.0, 719.0, 720.0, 720.0, 719.0, 719.0, 719.0, 719.0, 720.0, 721.0, 721.0, 720.0, 720.0, 720.0, 720.0, 720.0, 720.0, 720.0, 719.0, 719.0, 719.0, 719.0, 720.0, 720.0, 720.0, 720.0, 721.0, 721.0, 720.0, 720.0, 720.0, 720.0, 720.0, 720.0, 720.0, 720.0, 720.0, 720.0, 720.0, 720.0, 719.0, 720.0, 721.0, 721.0, 721.0, 720.0, 719.0, 719.0, 719.0, 719.0, 719.0, 720.0, 719.0, 720.0, 720.0, 721.0, 721.0, 720.0, 720.0, 720.0, 720.0, 721.0, 720.0, 720.0, 720.0, 720.0, 720.0, 719.0, 720.0, 720.0, 720.0, 721.0, 721.0, 721.0, 721.0, 721.0, 721.0, 720.0, 721.0, 721.0, 720.0, 720.0, 721.0, 721.0, 721.0, 720.0, 720.0, 721.0, 720.0, 721.0, 721.0, 721.0, 721.0, 720.0, 721.0, 720.0, 720.0, 721.0, 721.0, 721.0, 720.0, 721.0, 721.0, 722.0],
      "WindowWidth": [1551.0, 1545.0, 1547.0, 1547.0, 1546.0, 1546.0, 1545.0, 1546.0, 1546.0, 1547.0, 1546.0, 1549.0, 1548.0, 1546.0, 1548.0, 1545.0, 1545.0, 1546.0, 1546.0, 1547.0, 1547.0, 1547.0, 1548.0, 1548.0, 1548.0, 1546.0, 1546.0, 1545.0, 1545.0, 1545.0, 1545.0, 1545.0, 1545.0, 1545.0, 1546.0, 1546.0, 1546.0, 1546.0, 1545.0, 1546.0, 1545.0, 1545.0, 1543.0, 1544.0, 1544.0, 1545.0, 1546.0, 1548.0, 1545.0, 1547.0, 1547.0, 1547.0, 1547.0, 1548.0, 1550.0, 1548.0, 1548.0, 1547.0, 1546.0, 1546.0, 1547.0, 1545.0, 1546.0, 1546.0, 1545.0, 1543.0, 1544.0, 1545.0, 1546.0, 1548.0, 1549.0, 1546.0, 1547.0, 1547.0, 1546.0, 1547.0, 1546.0, 1546.0, 1544.0, 1544.0, 1545.0, 1544.0, 1546.0, 1545.0, 1546.0, 1546.0, 1549.0, 1548.0, 1546.0, 1547.0, 1546.0, 1547.0, 1546.0, 1547.0, 1547.0, 1546.0, 1545.0, 1546.0, 1546.0, 1546.0, 1545.0, 1546.0, 1549.0, 1550.0, 1548.0, 1547.0, 1545.0, 1544.0, 1544.0, 1545.0, 1544.0, 1545.0, 1543.0, 1545.0, 1545.0, 1548.0, 1548.0, 1546.0, 1547.0, 1547.0, 1547.0, 1548.0, 1547.0, 1547.0, 1547.0, 1545.0, 1546.0, 1544.0, 1546.0, 1546.0, 1547.0, 1548.0, 1548.0, 1548.0, 1548.0, 1547.0, 1548.0, 1547.0, 1548.0, 1548.0, 1547.0, 1547.0, 1549.0, 1549.0, 1548.0, 1547.0, 1547.0, 1549.0, 1547.0, 1549.0, 1550.0, 1548.0, 1548.0, 1547.0, 1548.0, 1546.0, 1548.0, 1549.0, 1548.0, 1548.0, 1547.0, 1548.0, 1550.0, 1550.0]
    },
    "slices": {}
  }
}