{
  "AcquisitionMatrixPE": 64,
  "AcquisitionNumber": 1,
  "AcquisitionTime": "13:18:37.392500",
  "BandwidthPerPixelPhaseEncode": 33.967,
  "BaseResolution": 64,
  "CoilCombinationMethod": "Sum of Squares",
  "CoilString": "C:HEA;HEP",
  "ConversionSoftware": "dcm2niix",
  "ConversionSoftwareVersion": "v1.0.20220720",
  "DerivedVendorReportedEchoSpacing": 0.000460005,
  "DeviceSerialNumber": "35193",
  "DwellTime": 3.1e-06,
  "EchoTime": 0.03,
  "EffectiveEchoSpacing": 0.000460005,
  "FlipAngle": 90,
  "HeudiconvVersion": "1.1.6",
  "ImageOrientationPatientDICOM": [0.998403, -0.00872654, -0.0558194, 0.00871293, 0.999962, -0.000487128],
  "ImageOrientationText": "Tra>Sag(-3.2)",
  "ImageType": [
    "ORIGINAL",
    "PRIMARY",
    "M",
    "ND",
    "MOSAIC"
],
  "ImagingFrequency": 123.254,
  "InPlanePhaseEncodingDirectionDICOM": "COL",
  "InstitutionAddress": "Xinjiekouwai Street No 19,Beijing,Haidian District,CN,100875",
  "InstitutionName": "Beijing Normal Universtiy/5777c4/",
  "InstitutionalDepartmentName": "Department",
  "MRAcquisitionType": "2D",
  "MagneticFieldStrength": 3,
  "Manufacturer": "Siemens",
  "ManufacturersModelName": "TrioTim",
  "MatrixCoilMode": "SENSE",
  "Modality": "MR",
  "NonlinearGradientCorrection": false,
  "PartialFourier": 1,
  "PatientPosition": "HFS",
  "PercentPhaseFOV": 100,
  "PercentSampling": 100,
  "PhaseEncodingDirection": "j-",
  "PhaseEncodingSteps": 64,
  "PhaseResolution": 1,
  "PixelBandwidth": 2520,
  "ProcedureStepDescription": "BNU_cst_2015^Guo.TaoMei",
  "ProtocolName": "ge_func_3x3x4_164",
  "PulseSequenceDetails": "%SiemensSeq%\\ep2d_bold",
  "ReceiveCoilName": "HeadMatrix",
  "ReconMatrixPE": 64,
  "RepetitionTime": 2,
  "SAR": 0.126984,
  "ScanOptions": "FS",
  "ScanningSequence": "EP",
  "SequenceName": "*epfid2d1_64",
  "SequenceVariant": "SK",
  "SeriesDescription": "ge_func_3x3x4_164",
  "SeriesNumber": 4,
  "ShimSetting": [-4558, -19425, -9852, 974, 6, -300, -42, 153],
  "SliceThickness": 4,
  "SliceTiming": [0, 1.0325, 0.06, 1.095, 0.12, 1.155, 0.1825, 1.215, 0.2425, 1.2775, 0.3025, 1.3375, 0.365, 1.3975, 0.425, 1.46, 0.485, 1.52, 0.5475, 1.58, 0.6075, 1.6425, 0.6675, 1.7025, 0.73, 1.7625, 0.79, 1.825, 0.85, 1.885, 0.9125, 1.945, 0.9725],
  "SoftwareVersions": "syngo MR B17",
  "SpacingBetweenSlices": 4.6,
  "StationName": "MRC35193",
  "TaskName": "LanguageControl",
  "TotalReadoutTime": 0.0289803,
  "TxRefAmp": 314.27,
  "dcmmeta_affine": [
    [-3.1200084686279297, 0.02722790651023388, -0.25677892565727234, 103.10467529296875],
    [0.027270426973700523, 3.1248810291290283, 2.8389507411574755e-10, -84.92469024658203],
    [-0.174435555934906, 0.0015222760848701, 4.592827320098877, -57.155311584472656],
    [0.0, 0.0, 0.0, 1.0]
],
  "dcmmeta_reorient_transform": [
    [0.0, -1.0, 0.0, 63.0],
    [1.0, 0.0, 0.0, 0.0],
    [0.0, 0.0, 1.0, 0.0],
    [0.0, 0.0, 0.0, 1.0]
],
  "dcmmeta_shape": [64, 64, 33, 164],
  "dcmmeta_slice_dim": 2,
  "dcmmeta_version": 0.6,
  "global": {
    "const": {
      "AcquisitionMatrix": [64, 0, 0, 64],
      "AngioFlag": "N",
      "BitsAllocated": 16,
      "BitsStored": 12,
      "Columns": 384,
      "EchoNumbers": 1,
      "EchoTime": 30.0,
      "EchoTrainLength": 1,
      "FlipAngle": 90.0,
      "HighBit": 11,
      "ImageOrientationPatient": [0.99840274658839, -0.008726536836, -0.0558193797852, 0.00871293011051, 0.9999619230525, -0.0004871283606],
      "ImagePositionPatient": [-608.37786882986, -607.56050853958, -28.906154774375],
      "ImageType": [
        "ORIGINAL",
        "PRIMARY",
        "M",
        "ND",
        "MOSAIC"
],
      "ImagedNucleus": "1H",
      "ImagingFrequency": 123.253916,
      "InPlanePhaseEncodingDirection": "COL",
      "MRAcquisitionType": "2D",
      "MagneticFieldStrength": 3.0,
      "Manufacturer": "SIEMENS",
      "ManufacturerModelName": "TrioTim",
      "Modality": "MR",
      "NumberOfAverages": 1.0,
      "NumberOfPhaseEncodingSteps": 64,
      "PercentPhaseFieldOfView": 100.0,
      "PercentSampling": 100.0,
      "PerformedProcedureStepStartTime": "125651.265000",
      "PhotometricInterpretation": "MONOCHROME2",
      "PixelBandwidth": 2520.0,
      "PixelRepresentation": 0,
      "PixelSpacing": [3.125, 3.125],
      "ProtocolName": "ge_func_3x3x4_164",
      "RepetitionTime": 2000.0,
      "Rows": 384,
      "SAR": 0.12698424690719,
      "SamplesPerPixel": 1,
      "ScanOptions": "FS",
      "ScanningSequence": "EP",
      "SequenceName": "*epfid2d1_64",
      "SequenceVariant": "SK",
      "SeriesDescription": "ge_func_3x3x4_164",
      "SeriesNumber": 4,
      "SeriesTime": "131858.453000",
      "SliceLocation": -62.821651652091,
      "SliceThickness": 4.0,
      "SmallestImagePixelValue": 0,
      "SoftwareVersions": "syngo MR B17",
      "SpacingBetweenSlices": 4.5999999243395,
      "SpecificCharacterSet": "ISO_IR 100",
      "StudyID": "1",
      "StudyTime": "125651.218000",
      "TransmitCoilName": "Body",
      "VariableFlipAngleFlag": "N",
      "WindowCenterWidthExplanation": "Algo1",
      "dBdt": 0.0},
    "slices": {}
  },
  "time": {
    "samples": {
      "AcquisitionNumber": [1, 2, 3, 4, 5, 6, 7, 8, 9, 10, 11, 12, 13, 14, 15, 16, 17, 18, 19, 20, 21, 22, 23, 24, 25, 26, 27, 28, 29, 30, 31, 32, 33, 34, 35, 36, 37, 38, 39, 40, 41, 42, 43, 44, 45, 46, 47, 48, 49, 50, 51, 52, 53, 54, 55, 56, 57, 58, 59, 60, 61, 62, 63, 64, 65, 66, 67, 68, 69, 70, 71, 72, 73, 74, 75, 76, 77, 78, 79, 80, 81, 82, 83, 84, 85, 86, 87, 88, 89, 90, 91, 92, 93, 94, 95, 96, 97, 98, 99, 100, 101, 102, 103, 104, 105, 106, 107, 108, 109, 110, 111, 112, 113, 114, 115, 116, 117, 118, 119, 120, 121, 122, 123, 124, 125, 126, 127, 128, 129, 130, 131, 132, 133, 134, 135, 136, 137, 138, 139, 140, 141, 142, 143, 144, 145, 146, 147, 148, 149, 150, 151, 152, 153, 154, 155, 156, 157, 158, 159, 160, 161, 162, 163, 164],
      "AcquisitionTime": ["131837.392500", "131839.400000", "131841.407500", "131843.415000", "131845.425000", "131847.432500", "131849.440000", "131851.447500", "131853.455000", "131855.465000", "131857.472500", "131859.480000", "131901.487500", "131903.495000", "131905.505000", "131907.512500", "131909.520000", "131911.527500", "131913.537500", "131915.545000", "131917.552500", "131919.560000", "131921.567500", "131923.577500", "131925.585000", "131927.592500", "131929.600000", "131931.607500", "131933.617500", "131935.625000", "131937.632500", "131939.640000", "131941.650000", "131943.657500", "131945.665000", "131947.672500", "131949.680000", "131951.690000", "131953.697500", "131955.705000", "131957.712500", "131959.720000", "132001.730000", "132003.737500", "132005.745000", "132007.752500", "132009.762500", "132011.770000", "132013.777500", "132015.785000", "132017.792500", "132019.802500", "132021.810000", "132023.817500", "132025.825000", "132027.832500", "132029.842500", "132031.850000", "132033.857500", "132035.865000", "132037.872500", "132039.882500", "132041.890000", "132043.897500", "132045.905000", "132047.915000", "132049.922500", "132051.930000", "132053.937500", "132055.945000", "132057.955000", "132059.962500", "132101.970000", "132103.977500", "132105.985000", "132107.995000", "132110.002500", "132112.010000", "132114.017500", "132116.027500", "132118.035000", "132120.042500", "132122.050000", "132124.057500", "132126.067500", "132128.075000", "132130.082500", "132132.090000", "132134.097500", "132136.107500", "132138.115000", "132140.122500", "132142.130000", "132144.140000", "132146.147500", "132148.155000", "132150.162500", "132152.170000", "132154.180000", "132156.187500", "132158.195000", "132200.202500", "132202.210000", "132204.220000", "132206.227500", "132208.235000", "132210.242500", "132212.250000", "132214.260000", "132216.267500", "132218.275000", "132220.282500", "132222.292500", "132224.300000", "132226.307500", "132228.315000", "132230.322500", "132232.332500", "132234.340000", "132236.347500", "132238.355000", "132240.362500", "132242.372500", "132244.380000", "132246.387500", "132248.395000", "132250.405000", "132252.412500", "132254.420000", "132256.427500", "132258.435000", "132300.445000", "132302.452500", "132304.460000", "132306.467500", "132308.475000", "132310.485000", "132312.492500", "132314.500000", "132316.507500", "132318.517500", "132320.525000", "132322.532500", "132324.540000", "132326.547500", "132328.557500", "132330.565000", "132332.572500", "132334.580000", "132336.587500", "132338.597500", "132340.605000", "132342.612500", "132344.620000", "132346.627500", "132348.637500", "132350.645000", "132352.652500", "132354.660000", "132356.670000", "132358.677500", "132400.685000", "132402.692500", "132404.700000"],
      "ContentTime": ["131858.453000", "131858.468000", "131858.468000", "131858.468000", "131858.468000", "131858.468000", "131858.468000", "131858.468000", "131858.468000", "131858.468000", "131938.453000", "131938.453000", "131938.453000", "131938.453000", "131938.453000", "131938.468000", "131938.468000", "131938.468000", "131938.468000", "131938.468000", "131938.468000", "131938.468000", "131938.468000", "131938.484000", "131938.484000", "131938.484000", "131938.484000", "131938.484000", "131938.484000", "131938.484000", "132018.453000", "132018.468000", "132018.468000", "132018.468000", "132018.468000", "132018.468000", "132018.468000", "132018.468000", "132018.468000", "132018.484000", "132018.484000", "132018.484000", "132018.484000", "132018.484000", "132018.484000", "132018.500000", "132018.500000", "132018.500000", "132018.500000", "132018.500000", "132058.453000", "132058.453000", "132058.453000", "132058.453000", "132058.453000", "132058.468000", "132058.468000", "132058.468000", "132058.468000", "132058.468000", "132058.468000", "132058.468000", "132058.468000", "132058.484000", "132058.484000", "132058.484000", "132058.484000", "132058.484000", "132058.484000", "132058.484000", "132138.453000", "132138.453000", "132138.453000", "132138.453000", "132138.453000", "132138.468000", "132138.468000", "132138.484000", "132138.484000", "132138.484000", "132138.484000", "132138.484000", "132138.500000", "132138.500000", "132138.500000", "132138.500000", "132138.500000", "132138.500000", "132138.500000", "132138.500000", "132218.453000", "132218.453000", "132218.453000", "132218.453000", "132218.453000", "132218.468000", "132218.468000", "132218.468000", "132218.468000", "132218.468000", "132218.468000", "132218.468000", "132218.468000", "132218.484000", "132218.484000", "132218.484000", "132218.484000", "132218.484000", "132218.484000", "132218.484000", "132258.453000", "132258.453000", "132258.453000", "132258.453000", "132258.453000", "132258.468000", "132258.468000", "132258.468000", "132258.468000", "132258.468000", "132258.468000", "132258.468000", "132258.468000", "132258.484000", "132258.484000", "132258.484000", "132258.484000", "132258.484000", "132258.484000", "132258.484000", "132338.453000", "132338.453000", "132338.453000", "132338.453000", "132338.453000", "132338.468000", "132338.468000", "132338.468000", "132338.468000", "132338.468000", "132338.484000", "132338.484000", "132338.484000", "132338.484000", "132338.484000", "132338.484000", "132338.500000", "132338.500000", "132338.500000", "132338.500000", "132405.468000", "132405.468000", "132405.468000", "132405.468000", "132405.468000", "132405.468000", "132405.484000", "132405.484000", "132405.484000", "132405.484000", "132405.484000", "132405.484000", "132405.484000", "132405.484000"],
      "InstanceCreationTime": ["131858.453000", "131858.468000", "131858.468000", "131858.468000", "131858.468000", "131858.468000", "131858.468000", "131858.468000", "131858.468000", "131858.468000", "131938.453000", "131938.453000", "131938.453000", "131938.453000", "131938.453000", "131938.468000", "131938.468000", "131938.468000", "131938.468000", "131938.468000", "131938.468000", "131938.468000", "131938.468000", "131938.484000", "131938.484000", "131938.484000", "131938.484000", "131938.484000", "131938.484000", "131938.484000", "132018.453000", "132018.468000", "132018.468000", "132018.468000", "132018.468000", "132018.468000", "132018.468000", "132018.468000", "132018.468000", "132018.484000", "132018.484000", "132018.484000", "132018.484000", "132018.484000", "132018.484000", "132018.500000", "132018.500000", "132018.500000", "132018.500000", "132018.500000", "132058.453000", "132058.453000", "132058.453000", "132058.453000", "132058.453000", "132058.468000", "132058.468000", "132058.468000", "132058.468000", "132058.468000", "132058.468000", "132058.468000", "132058.468000", "132058.484000", "132058.484000", "132058.484000", "132058.484000", "132058.484000", "132058.484000", "132058.484000", "132138.453000", "132138.453000", "132138.453000", "132138.453000", "132138.453000", "132138.468000", "132138.468000", "132138.484000", "132138.484000", "132138.484000", "132138.484000", "132138.484000", "132138.500000", "132138.500000", "132138.500000", "132138.500000", "132138.500000", "132138.500000", "132138.500000", "132138.500000", "132218.453000", "132218.453000", "132218.453000", "132218.453000", "132218.453000", "132218.468000", "132218.468000", "132218.468000", "132218.468000", "132218.468000", "132218.468000", "132218.468000", "132218.468000", "132218.484000", "132218.484000", "132218.484000", "132218.484000", "132218.484000", "132218.484000", "132218.484000", "132258.453000", "132258.453000", "132258.453000", "132258.453000", "132258.453000", "132258.468000", "132258.468000", "132258.468000", "132258.468000", "132258.468000", "132258.468000", "132258.468000", "132258.468000", "132258.484000", "132258.484000", "132258.484000", "132258.484000", "132258.484000", "132258.484000", "132258.484000", "132338.453000", "132338.453000", "132338.453000", "132338.453000", "132338.453000", "132338.468000", "132338.468000", "132338.468000", "132338.468000", "132338.468000", "132338.484000", "132338.484000", "132338.484000", "132338.484000", "132338.484000", "132338.484000", "132338.500000", "132338.500000", "132338.500000", "132338.500000", "132405.468000", "132405.468000", "132405.468000", "132405.468000", "132405.468000", "132405.468000", "132405.484000", "132405.484000", "132405.484000", "132405.484000", "132405.484000", "132405.484000", "132405.484000", "132405.484000"],
      "InstanceNumber": [1, 2, 3, 4, 5, 6, 7, 8, 9, 10, 11, 12, 13, 14, 15, 16, 17, 18, 19, 20, 21, 22, 23, 24, 25, 26, 27, 28, 29, 30, 31, 32, 33, 34, 35, 36, 37, 38, 39, 40, 41, 42, 43, 44, 45, 46, 47, 48, 49, 50, 51, 52, 53, 54, 55, 56, 57, 58, 59, 60, 61, 62, 63, 64, 65, 66, 67, 68, 69, 70, 71, 72, 73, 74, 75, 76, 77, 78, 79, 80, 81, 82, 83, 84, 85, 86, 87, 88, 89, 90, 91, 92, 93, 94, 95, 96, 97, 98, 99, 100, 101, 102, 103, 104, 105, 106, 107, 108, 109, 110, 111, 112, 113, 114, 115, 116, 117, 118, 119, 120, 121, 122, 123, 124, 125, 126, 127, 128, 129, 130, 131, 132, 133, 134, 135, 136, 137, 138, 139, 140, 141, 142, 143, 144, 145, 146, 147, 148, 149, 150, 151, 152, 153, 154, 155, 156, 157, 158, 159, 160, 161, 162, 163, 164],
      "LargestImagePixelValue": [1963, 1721, 1670, 1699, 1672, 1682, 1668, 1680, 1652, 1667, 1685, 1666, 1672, 1644, 1661, 1684, 1694, 1663, 1639, 1644, 1646, 1659, 1640, 1650, 1648, 1670, 1657, 1642, 1634, 1650, 1671, 1651, 1628, 1640, 1651, 1638, 1655, 1649, 1649, 1660, 1655, 1648, 1655, 1671, 1649, 1647, 1671, 1674, 1641, 1667, 1672, 1668, 1667, 1641, 1658, 1655, 1653, 1655, 1643, 1655, 1641, 1656, 1654, 1654, 1668, 1667, 1670, 1659, 1652, 1695, 1711, 1696, 1685, 1660, 1673, 1667, 1669, 1674, 1661, 1657, 1692, 1673, 1697, 1666, 1659, 1683, 1660, 1676, 1660, 1664, 1653, 1685, 1685, 1670, 1687, 1676, 1672, 1685, 1679, 1669, 1651, 1690, 1675, 1666, 1685, 1668, 1669, 1668, 1665, 1679, 1676, 1679, 1676, 1650, 1687, 1679, 1664, 1705, 1680, 1670, 1670, 1677, 1681, 1683, 1681, 1679, 1672, 1671, 1672, 1662, 1668, 1673, 1689, 1646, 1650, 1678, 1668, 1663, 1683, 1683, 1666, 1664, 1671, 1672, 1683, 1665, 1672, 1665, 1685, 1662, 1721, 1674, 1664, 1683, 1692, 1669, 1694, 1704, 1667, 1674, 1708, 1657, 1681, 1691],
      "WindowCenter": [728.0, 726.0, 726.0, 726.0, 726.0, 725.0, 725.0, 724.0, 724.0, 723.0, 723.0, 724.0, 724.0, 724.0, 724.0, 724.0, 724.0, 724.0, 724.0, 724.0, 724.0, 725.0, 725.0, 725.0, 724.0, 724.0, 724.0, 724.0, 724.0, 726.0, 726.0, 726.0, 724.0, 724.0, 724.0, 724.0, 725.0, 725.0, 725.0, 725.0, 725.0, 724.0, 724.0, 725.0, 725.0, 724.0, 725.0, 725.0, 725.0, 725.0, 725.0, 724.0, 724.0, 724.0, 724.0, 725.0, 725.0, 725.0, 724.0, 724.0, 725.0, 726.0, 726.0, 725.0, 727.0, 726.0, 726.0, 725.0, 726.0, 727.0, 728.0, 727.0, 726.0, 725.0, 724.0, 724.0, 724.0, 724.0, 724.0, 724.0, 726.0, 726.0, 726.0, 725.0, 725.0, 725.0, 724.0, 724.0, 725.0, 725.0, 725.0, 725.0, 725.0, 725.0, 725.0, 726.0, 726.0, 726.0, 726.0, 727.0, 726.0, 726.0, 726.0, 726.0, 726.0, 725.0, 724.0, 724.0, 724.0, 725.0, 725.0, 725.0, 724.0, 724.0, 725.0, 726.0, 726.0, 726.0, 725.0, 726.0, 726.0, 726.0, 726.0, 725.0, 726.0, 725.0, 725.0, 725.0, 725.0, 724.0, 724.0, 725.0, 725.0, 725.0, 726.0, 726.0, 725.0, 725.0, 726.0, 726.0, 726.0, 725.0, 726.0, 726.0, 725.0, 725.0, 726.0, 725.0, 725.0, 726.0, 727.0, 726.0, 726.0, 726.0, 726.0, 726.0, 727.0, 726.0, 725.0, 725.0, 725.0, 725.0, 725.0, 725.0],
      "WindowWidth": [1589.0, 1582.0, 1582.0, 1583.0, 1580.0, 1579.0, 1579.0, 1576.0, 1575.0, 1574.0, 1574.0, 1576.0, 1577.0, 1577.0, 1575.0, 1576.0, 1577.0, 1576.0, 1577.0, 1576.0, 1575.0, 1578.0, 1579.0, 1579.0, 1577.0, 1578.0, 1576.0, 1576.0, 1577.0, 1581.0, 1582.0, 1581.0, 1577.0, 1577.0, 1576.0, 1577.0, 1581.0, 1580.0, 1579.0, 1580.0, 1578.0, 1576.0, 1577.0, 1579.0, 1578.0, 1576.0, 1578.0, 1580.0, 1580.0, 1580.0, 1578.0, 1577.0, 1577.0, 1577.0, 1577.0, 1578.0, 1579.0, 1579.0, 1576.0, 1577.0, 1578.0, 1581.0, 1581.0, 1580.0, 1583.0, 1581.0, 1580.0, 1580.0, 1581.0, 1584.0, 1586.0, 1584.0, 1581.0, 1578.0, 1576.0, 1576.0, 1576.0, 1576.0, 1576.0, 1576.0, 1580.0, 1582.0, 1580.0, 1577.0, 1578.0, 1579.0, 1576.0, 1577.0, 1578.0, 1578.0, 1577.0, 1577.0, 1578.0, 1579.0, 1580.0, 1582.0, 1582.0, 1582.0, 1581.0, 1582.0, 1582.0, 1582.0, 1581.0, 1582.0, 1581.0, 1578.0, 1575.0, 1576.0, 1577.0, 1580.0, 1579.0, 1577.0, 1575.0, 1577.0, 1578.0, 1580.0, 1581.0, 1580.0, 1579.0, 1580.0, 1580.0, 1580.0, 1579.0, 1579.0, 1580.0, 1579.0, 1578.0, 1578.0, 1578.0, 1576.0, 1576.0, 1577.0, 1578.0, 1578.0, 1580.0, 1581.0, 1578.0, 1579.0, 1581.0, 1583.0, 1580.0, 1579.0, 1579.0, 1580.0, 1579.0, 1579.0, 1580.0, 1579.0, 1580.0, 1581.0, 1583.0, 1582.0, 1581.0, 1581.0, 1581.0, 1582.0, 1583.0, 1582.0, 1578.0, 1579.0, 1579.0, 1578.0, 1577.0, 1577.0]
    },
    "slices": {}
  }
}