{
  "AcquisitionMatrixPE": 64,
  "AcquisitionNumber": 1,
  "AcquisitionTime": "09:01:12.515000",
  "BandwidthPerPixelPhaseEncode": 33.967,
  "BaseResolution": 64,
  "CoilCombinationMethod": "Sum of Squares",
  "CoilString": "C:HEA;HEP",
  "ConversionSoftware": "dcm2niix",
  "ConversionSoftwareVersion": "v1.0.20220720",
  "DerivedVendorReportedEchoSpacing": 0.000460005,
  "DeviceSerialNumber": "35193",
  "DwellTime": 3.1e-06,
  "EchoTime": 0.03,
  "EffectiveEchoSpacing": 0.000460005,
  "FlipAngle": 90,
  "HeudiconvVersion": "1.1.6",
  "ImageOrientationPatientDICOM": [0.99961, -1e-16, -0.0279216, 1e-16, 1, 0],
  "ImageOrientationText": "Tra>Sag(-1.6)",
  "ImageType": [
    "ORIGINAL",
    "PRIMARY",
    "M",
    "ND",
    "MOSAIC"
],
  "ImagingFrequency": 123.254,
  "InPlanePhaseEncodingDirectionDICOM": "COL",
  "InstitutionAddress": "Xinjiekouwai Street No 19,Beijing,Haidian District,CN,100875",
  "InstitutionName": "Beijing Normal Universtiy/2773C4/",
  "InstitutionalDepartmentName": "Department",
  "MRAcquisitionType": "2D",
  "MagneticFieldStrength": 3,
  "Manufacturer": "Siemens",
  "ManufacturersModelName": "TrioTim",
  "MatrixCoilMode": "SENSE",
  "Modality": "MR",
  "NonlinearGradientCorrection": false,
  "PartialFourier": 1,
  "PatientPosition": "HFS",
  "PercentPhaseFOV": 100,
  "PercentSampling": 100,
  "PhaseEncodingDirection": "j-",
  "PhaseEncodingSteps": 64,
  "PhaseResolution": 1,
  "PixelBandwidth": 2520,
  "ProcedureStepDescription": "BNU_cst_2015^Guo.TaoMei",
  "ProtocolName": "ge_func_3x3x4_164",
  "PulseSequenceDetails": "%SiemensSeq%\\ep2d_bold",
  "ReceiveCoilName": "HeadMatrix",
  "ReconMatrixPE": 64,
  "RepetitionTime": 2,
  "SAR": 0.156983,
  "ScanOptions": "FS",
  "ScanningSequence": "EP",
  "SequenceName": "*epfid2d1_64",
  "SequenceVariant": "SK",
  "SeriesDescription": "ge_func_3x3x4_164",
  "SeriesNumber": 3,
  "ShimSetting": [-4517, -19415, -9815, 1152, -40, -382, -130, -10],
  "SliceThickness": 4,
  "SliceTiming": [0, 1.0325, 0.06, 1.095, 0.12, 1.155, 0.1825, 1.215, 0.2425, 1.2775, 0.3025, 1.3375, 0.365, 1.3975, 0.425, 1.46, 0.485, 1.52, 0.5475, 1.58, 0.6075, 1.6425, 0.6675, 1.7025, 0.73, 1.7625, 0.79, 1.825, 0.85, 1.885, 0.9125, 1.945, 0.9725],
  "SoftwareVersions": "syngo MR B17",
  "SpacingBetweenSlices": 4.6,
  "StationName": "MRC35193",
  "TaskName": "LanguageControl",
  "TotalReadoutTime": 0.0289803,
  "TxRefAmp": 349.505,
  "dcmmeta_affine": [
    [-3.123781681060791, 3.124999945161469e-16, -0.1284395307302475, 105.38954162597656],
    [3.124999945161469e-16, 3.125, 1.2843953490007919e-17, -82.03162384033203],
    [-0.08725512027740479, 0.0, 4.598206520080566, -64.70685577392578],
    [0.0, 0.0, 0.0, 1.0]
],
  "dcmmeta_reorient_transform": [
    [0.0, -1.0, 0.0, 63.0],
    [1.0, 0.0, 0.0, 0.0],
    [0.0, 0.0, 1.0, 0.0],
    [0.0, 0.0, 0.0, 1.0]
],
  "dcmmeta_shape": [64, 64, 33, 164],
  "dcmmeta_slice_dim": 2,
  "dcmmeta_version": 0.6,
  "global": {
    "const": {
      "AcquisitionMatrix": [64, 0, 0, 64],
      "AngioFlag": "N",
      "BitsAllocated": 16,
      "BitsStored": 12,
      "Columns": 384,
      "EchoNumbers": 1,
      "EchoTime": 30.0,
      "EchoTrainLength": 1,
      "FlipAngle": 90.0,
      "HighBit": 11,
      "ImageOrientationPatient": [0.99961011506466, -1e-16, -0.0279216378532, 1e-16, 1.0, 0.0],
      "ImagePositionPatient": [-605.19459544032, -614.84337329864, -50.746033096157],
      "ImageType": [
        "ORIGINAL",
        "PRIMARY",
        "M",
        "ND",
        "MOSAIC"
],
      "ImagedNucleus": "1H",
      "ImagingFrequency": 123.253567,
      "InPlanePhaseEncodingDirection": "COL",
      "MRAcquisitionType": "2D",
      "MagneticFieldStrength": 3.0,
      "Manufacturer": "SIEMENS",
      "ManufacturerModelName": "TrioTim",
      "Modality": "MR",
      "NumberOfAverages": 1.0,
      "NumberOfPhaseEncodingSteps": 64,
      "PercentPhaseFieldOfView": 100.0,
      "PercentSampling": 100.0,
      "PerformedProcedureStepStartTime": "083631.234000",
      "PhotometricInterpretation": "MONOCHROME2",
      "PixelBandwidth": 2520.0,
      "PixelRepresentation": 0,
      "PixelSpacing": [3.125, 3.125],
      "ProtocolName": "ge_func_3x3x4_164",
      "RepetitionTime": 2000.0,
      "Rows": 384,
      "SAR": 0.15698293428721,
      "SamplesPerPixel": 1,
      "ScanOptions": "FS",
      "ScanningSequence": "EP",
      "SequenceName": "*epfid2d1_64",
      "SequenceVariant": "SK",
      "SeriesDescription": "ge_func_3x3x4_164",
      "SeriesNumber": 3,
      "SeriesTime": "090210.734000",
      "SliceLocation": -67.624272306952,
      "SliceThickness": 4.0,
      "SmallestImagePixelValue": 0,
      "SoftwareVersions": "syngo MR B17",
      "SpacingBetweenSlices": 4.5999999906919,
      "SpecificCharacterSet": "ISO_IR 100",
      "StudyID": "1",
      "StudyTime": "083631.109000",
      "TransmitCoilName": "Body",
      "VariableFlipAngleFlag": "N",
      "WindowCenterWidthExplanation": "Algo1",
      "dBdt": 0.0},
    "slices": {}
  },
  "time": {
    "samples": {
      "AcquisitionNumber": [1, 2, 3, 4, 5, 6, 7, 8, 9, 10, 11, 12, 13, 14, 15, 16, 17, 18, 19, 20, 21, 22, 23, 24, 25, 26, 27, 28, 29, 30, 31, 32, 33, 34, 35, 36, 37, 38, 39, 40, 41, 42, 43, 44, 45, 46, 47, 48, 49, 50, 51, 52, 53, 54, 55, 56, 57, 58, 59, 60, 61, 62, 63, 64, 65, 66, 67, 68, 69, 70, 71, 72, 73, 74, 75, 76, 77, 78, 79, 80, 81, 82, 83, 84, 85, 86, 87, 88, 89, 90, 91, 92, 93, 94, 95, 96, 97, 98, 99, 100, 101, 102, 103, 104, 105, 106, 107, 108, 109, 110, 111, 112, 113, 114, 115, 116, 117, 118, 119, 120, 121, 122, 123, 124, 125, 126, 127, 128, 129, 130, 131, 132, 133, 134, 135, 136, 137, 138, 139, 140, 141, 142, 143, 144, 145, 146, 147, 148, 149, 150, 151, 152, 153, 154, 155, 156, 157, 158, 159, 160, 161, 162, 163, 164],
      "AcquisitionTime": ["090112.515000", "090114.522500", "090116.530000", "090118.537500", "090120.545000", "090122.555000", "090124.562500", "090126.570000", "090128.577500", "090130.585000", "090132.595000", "090134.602500", "090136.610000", "090138.617500", "090140.627500", "090142.635000", "090144.642500", "090146.650000", "090148.657500", "090150.667500", "090152.675000", "090154.682500", "090156.690000", "090158.697500", "090200.707500", "090202.715000", "090204.722500", "090206.730000", "090208.740000", "090210.747500", "090212.755000", "090214.762500", "090216.770000", "090218.780000", "090220.787500", "090222.795000", "090224.802500", "090226.810000", "090228.820000", "090230.827500", "090232.835000", "090234.842500", "090236.852500", "090238.860000", "090240.867500", "090242.875000", "090244.882500", "090246.892500", "090248.900000", "090250.907500", "090252.915000", "090254.922500", "090256.932500", "090258.940000", "090300.947500", "090302.955000", "090304.962500", "090306.972500", "090308.980000", "090310.987500", "090312.995000", "090315.005000", "090317.012500", "090319.020000", "090321.027500", "090323.035000", "090325.045000", "090327.052500", "090329.060000", "090331.067500", "090333.075000", "090335.085000", "090337.092500", "090339.100000", "090341.107500", "090343.117500", "090345.125000", "090347.132500", "090349.140000", "090351.147500", "090353.157500", "090355.165000", "090357.172500", "090359.180000", "090401.187500", "090403.197500", "090405.205000", "090407.212500", "090409.220000", "090411.230000", "090413.237500", "090415.245000", "090417.252500", "090419.260000", "090421.270000", "090423.277500", "090425.285000", "090427.292500", "090429.300000", "090431.310000", "090433.317500", "090435.325000", "090437.332500", "090439.340000", "090441.350000", "090443.357500", "090445.365000", "090447.372500", "090449.382500", "090451.390000", "090453.397500", "090455.405000", "090457.412500", "090459.422500", "090501.430000", "090503.437500", "090505.445000", "090507.452500", "090509.462500", "090511.470000", "090513.477500", "090515.485000", "090517.495000", "090519.502500", "090521.510000", "090523.517500", "090525.525000", "090527.535000", "090529.542500", "090531.550000", "090533.557500", "090535.565000", "090537.575000", "090539.582500", "090541.590000", "090543.597500", "090545.607500", "090547.615000", "090549.622500", "090551.630000", "090553.637500", "090555.647500", "090557.655000", "090559.662500", "090601.670000", "090603.677500", "090605.687500", "090607.695000", "090609.702500", "090611.710000", "090613.717500", "090615.727500", "090617.735000", "090619.742500", "090621.750000", "090623.760000", "090625.767500", "090627.775000", "090629.782500", "090631.790000", "090633.800000", "090635.807500", "090637.815000", "090639.822500"],
      "ContentTime": ["090210.734000", "090210.734000", "090210.734000", "090210.750000", "090210.750000", "090210.750000", "090210.750000", "090210.750000", "090210.750000", "090210.750000", "090210.765000", "090210.765000", "090210.765000", "090210.765000", "090210.781000", "090210.781000", "090210.781000", "090210.781000", "090210.796000", "090210.796000", "090210.796000", "090210.796000", "090210.796000", "090210.812000", "090210.812000", "090210.812000", "090210.812000", "090210.812000", "090250.718000", "090250.718000", "090250.718000", "090250.718000", "090250.734000", "090250.734000", "090250.734000", "090250.734000", "090250.734000", "090250.734000", "090250.734000", "090250.750000", "090250.750000", "090250.750000", "090250.750000", "090250.750000", "090250.750000", "090250.765000", "090250.765000", "090250.765000", "090330.718000", "090330.718000", "090330.718000", "090330.718000", "090330.718000", "090330.718000", "090330.718000", "090330.734000", "090330.734000", "090330.734000", "090330.734000", "090330.734000", "090330.734000", "090330.750000", "090330.750000", "090330.750000", "090330.750000", "090330.750000", "090330.750000", "090330.750000", "090410.718000", "090410.718000", "090410.718000", "090410.718000", "090410.718000", "090410.718000", "090410.718000", "090410.734000", "090410.734000", "090410.734000", "090410.734000", "090410.750000", "090410.750000", "090410.750000", "090410.765000", "090410.765000", "090410.765000", "090410.765000", "090410.765000", "090410.765000", "090430.718000", "090430.718000", "090430.718000", "090430.718000", "090430.718000", "090430.734000", "090430.734000", "090430.734000", "090430.734000", "090430.734000", "090510.718000", "090510.718000", "090510.718000", "090510.718000", "090510.718000", "090510.718000", "090510.718000", "090510.734000", "090510.734000", "090510.734000", "090510.734000", "090510.734000", "090510.734000", "090510.750000", "090510.750000", "090510.750000", "090510.750000", "090510.750000", "090510.765000", "090510.765000", "090550.718000", "090550.718000", "090550.718000", "090550.718000", "090550.734000", "090550.734000", "090550.734000", "090550.750000", "090550.765000", "090550.765000", "090550.765000", "090550.765000", "090550.765000", "090550.765000", "090550.781000", "090550.781000", "090550.781000", "090550.781000", "090550.781000", "090550.781000", "090630.718000", "090630.718000", "090630.718000", "090630.718000", "090630.718000", "090630.734000", "090630.734000", "090630.734000", "090630.734000", "090630.734000", "090630.734000", "090630.734000", "090630.750000", "090630.750000", "090630.750000", "090630.750000", "090630.750000", "090630.750000", "090630.750000", "090630.750000", "090640.718000", "090640.718000", "090640.734000", "090640.734000", "090640.734000", "090640.734000"],
      "InstanceCreationTime": ["090210.734000", "090210.734000", "090210.734000", "090210.750000", "090210.750000", "090210.750000", "090210.750000", "090210.750000", "090210.750000", "090210.750000", "090210.765000", "090210.765000", "090210.765000", "090210.765000", "090210.781000", "090210.781000", "090210.781000", "090210.781000", "090210.796000", "090210.796000", "090210.796000", "090210.796000", "090210.796000", "090210.812000", "090210.812000", "090210.812000", "090210.812000", "090210.812000", "090250.718000", "090250.718000", "090250.718000", "090250.718000", "090250.734000", "090250.734000", "090250.734000", "090250.734000", "090250.734000", "090250.734000", "090250.734000", "090250.750000", "090250.750000", "090250.750000", "090250.750000", "090250.750000", "090250.750000", "090250.765000", "090250.765000", "090250.765000", "090330.718000", "090330.718000", "090330.718000", "090330.718000", "090330.718000", "090330.718000", "090330.718000", "090330.734000", "090330.734000", "090330.734000", "090330.734000", "090330.734000", "090330.734000", "090330.750000", "090330.750000", "090330.750000", "090330.750000", "090330.750000", "090330.750000", "090330.750000", "090410.718000", "090410.718000", "090410.718000", "090410.718000", "090410.718000", "090410.718000", "090410.718000", "090410.734000", "090410.734000", "090410.734000", "090410.734000", "090410.750000", "090410.750000", "090410.750000", "090410.765000", "090410.765000", "090410.765000", "090410.765000", "090410.765000", "090410.765000", "090430.718000", "090430.718000", "090430.718000", "090430.718000", "090430.718000", "090430.734000", "090430.734000", "090430.734000", "090430.734000", "090430.734000", "090510.718000", "090510.718000", "090510.718000", "090510.718000", "090510.718000", "090510.718000", "090510.718000", "090510.734000", "090510.734000", "090510.734000", "090510.734000", "090510.734000", "090510.734000", "090510.750000", "090510.750000", "090510.750000", "090510.750000", "090510.750000", "090510.765000", "090510.765000", "090550.718000", "090550.718000", "090550.718000", "090550.718000", "090550.734000", "090550.734000", "090550.734000", "090550.750000", "090550.765000", "090550.765000", "090550.765000", "090550.765000", "090550.765000", "090550.765000", "090550.781000", "090550.781000", "090550.781000", "090550.781000", "090550.781000", "090550.781000", "090630.718000", "090630.718000", "090630.718000", "090630.718000", "090630.718000", "090630.734000", "090630.734000", "090630.734000", "090630.734000", "090630.734000", "090630.734000", "090630.734000", "090630.750000", "090630.750000", "090630.750000", "090630.750000", "090630.750000", "090630.750000", "090630.750000", "090630.750000", "090640.718000", "090640.718000", "090640.734000", "090640.734000", "090640.734000", "090640.734000"],
      "InstanceNumber": [1, 2, 3, 4, 5, 6, 7, 8, 9, 10, 11, 12, 13, 14, 15, 16, 17, 18, 19, 20, 21, 22, 23, 24, 25, 26, 27, 28, 29, 30, 31, 32, 33, 34, 35, 36, 37, 38, 39, 40, 41, 42, 43, 44, 45, 46, 47, 48, 49, 50, 51, 52, 53, 54, 55, 56, 57, 58, 59, 60, 61, 62, 63, 64, 65, 66, 67, 68, 69, 70, 71, 72, 73, 74, 75, 76, 77, 78, 79, 80, 81, 82, 83, 84, 85, 86, 87, 88, 89, 90, 91, 92, 93, 94, 95, 96, 97, 98, 99, 100, 101, 102, 103, 104, 105, 106, 107, 108, 109, 110, 111, 112, 113, 114, 115, 116, 117, 118, 119, 120, 121, 122, 123, 124, 125, 126, 127, 128, 129, 130, 131, 132, 133, 134, 135, 136, 137, 138, 139, 140, 141, 142, 143, 144, 145, 146, 147, 148, 149, 150, 151, 152, 153, 154, 155, 156, 157, 158, 159, 160, 161, 162, 163, 164],
      "LargestImagePixelValue": [1576, 1529, 1516, 1480, 1485, 1563, 1479, 1489, 1670, 1690, 1506, 1793, 1496, 1477, 1484, 1513, 1794, 1464, 1493, 1494, 1464, 1715, 1476, 1458, 1458, 1488, 1481, 1477, 1470, 1658, 1683, 1461, 1467, 1493, 1618, 1465, 1488, 1466, 1640, 1464, 1467, 1505, 1543, 1440, 1825, 1459, 1636, 1469, 1461, 1689, 1485, 1469, 1490, 1619, 1465, 1475, 1482, 1480, 1795, 1459, 1476, 1461, 1495, 1913, 1548, 1459, 1472, 1485, 1493, 1472, 1504, 1492, 1483, 1792, 1460, 1596, 1482, 1484, 1490, 1852, 1499, 1512, 1501, 1482, 1519, 2064, 1514, 1488, 1490, 1480, 1509, 1494, 1814, 1510, 1865, 1522, 1496, 1498, 1925, 1498, 1491, 1477, 1504, 1966, 1497, 1511, 1494, 1490, 1566, 1532, 1696, 1505, 1503, 1496, 1518, 1684, 1506, 1509, 1495, 1507, 1511, 1515, 1880, 1635, 1506, 1528, 1934, 1491, 1518, 1517, 1501, 1514, 1500, 1503, 1500, 1491, 1524, 1496, 1490, 1509, 1486, 1483, 1520, 1773, 1498, 1469, 1484, 1758, 1485, 1493, 1479, 1495, 1465, 1488, 1700, 1494, 1529, 1530, 1493, 1789, 1512, 1498, 1513, 1489],
      "WindowCenter": [693.0, 691.0, 692.0, 690.0, 690.0, 690.0, 690.0, 689.0, 692.0, 690.0, 688.0, 690.0, 687.0, 687.0, 688.0, 688.0, 691.0, 688.0, 688.0, 688.0, 688.0, 691.0, 688.0, 688.0, 688.0, 688.0, 687.0, 688.0, 689.0, 691.0, 690.0, 688.0, 687.0, 687.0, 687.0, 687.0, 688.0, 688.0, 688.0, 685.0, 687.0, 690.0, 689.0, 686.0, 688.0, 685.0, 686.0, 685.0, 684.0, 687.0, 687.0, 689.0, 689.0, 689.0, 687.0, 687.0, 688.0, 689.0, 692.0, 688.0, 689.0, 689.0, 687.0, 689.0, 686.0, 686.0, 687.0, 687.0, 687.0, 688.0, 689.0, 689.0, 688.0, 690.0, 686.0, 688.0, 687.0, 687.0, 687.0, 690.0, 687.0, 687.0, 689.0, 688.0, 687.0, 692.0, 688.0, 688.0, 689.0, 688.0, 688.0, 688.0, 690.0, 686.0, 687.0, 687.0, 689.0, 687.0, 688.0, 686.0, 688.0, 688.0, 686.0, 688.0, 686.0, 687.0, 687.0, 686.0, 687.0, 687.0, 689.0, 687.0, 687.0, 688.0, 688.0, 690.0, 690.0, 692.0, 690.0, 690.0, 690.0, 691.0, 694.0, 690.0, 688.0, 687.0, 691.0, 688.0, 689.0, 689.0, 690.0, 690.0, 690.0, 689.0, 688.0, 688.0, 689.0, 689.0, 689.0, 689.0, 689.0, 689.0, 690.0, 692.0, 690.0, 689.0, 688.0, 690.0, 689.0, 689.0, 689.0, 689.0, 688.0, 688.0, 691.0, 689.0, 689.0, 689.0, 687.0, 690.0, 688.0, 689.0, 690.0, 689.0],
      "WindowWidth": [1473.0, 1468.0, 1470.0, 1467.0, 1466.0, 1466.0, 1466.0, 1464.0, 1470.0, 1466.0, 1461.0, 1464.0, 1459.0, 1459.0, 1461.0, 1462.0, 1467.0, 1460.0, 1461.0, 1462.0, 1461.0, 1467.0, 1462.0, 1462.0, 1462.0, 1461.0, 1460.0, 1462.0, 1465.0, 1468.0, 1465.0, 1461.0, 1459.0, 1458.0, 1459.0, 1459.0, 1461.0, 1461.0, 1460.0, 1454.0, 1460.0, 1465.0, 1463.0, 1456.0, 1459.0, 1453.0, 1456.0, 1453.0, 1452.0, 1457.0, 1459.0, 1463.0, 1462.0, 1463.0, 1458.0, 1459.0, 1460.0, 1462.0, 1469.0, 1461.0, 1463.0, 1464.0, 1459.0, 1464.0, 1456.0, 1456.0, 1458.0, 1459.0, 1460.0, 1461.0, 1465.0, 1464.0, 1461.0, 1464.0, 1456.0, 1461.0, 1458.0, 1459.0, 1459.0, 1466.0, 1459.0, 1459.0, 1463.0, 1461.0, 1459.0, 1469.0, 1460.0, 1461.0, 1464.0, 1460.0, 1461.0, 1460.0, 1464.0, 1456.0, 1458.0, 1458.0, 1464.0, 1458.0, 1460.0, 1456.0, 1462.0, 1460.0, 1457.0, 1460.0, 1456.0, 1458.0, 1457.0, 1456.0, 1458.0, 1459.0, 1462.0, 1459.0, 1459.0, 1461.0, 1461.0, 1465.0, 1467.0, 1470.0, 1466.0, 1466.0, 1465.0, 1469.0, 1474.0, 1466.0, 1460.0, 1458.0, 1466.0, 1462.0, 1464.0, 1464.0, 1465.0, 1466.0, 1465.0, 1463.0, 1461.0, 1462.0, 1464.0, 1463.0, 1464.0, 1464.0, 1464.0, 1463.0, 1465.0, 1471.0, 1465.0, 1464.0, 1462.0, 1466.0, 1462.0, 1464.0, 1464.0, 1463.0, 1461.0, 1462.0, 1468.0, 1464.0, 1464.0, 1462.0, 1459.0, 1465.0, 1461.0, 1464.0, 1466.0, 1463.0]
    },
    "slices": {}
  }
}