{
  "AcquisitionMatrixPE": 64,
  "AcquisitionNumber": 1,
  "AcquisitionTime": "09:08:15.055000",
  "BandwidthPerPixelPhaseEncode": 33.967,
  "BaseResolution": 64,
  "CoilCombinationMethod": "Sum of Squares",
  "CoilString": "C:HEA;HEP",
  "ConversionSoftware": "dcm2niix",
  "ConversionSoftwareVersion": "v1.0.20220720",
  "DerivedVendorReportedEchoSpacing": 0.000460005,
  "DeviceSerialNumber": "35193",
  "DwellTime": 3.1e-06,
  "EchoTime": 0.03,
  "EffectiveEchoSpacing": 0.000460005,
  "FlipAngle": 90,
  "HeudiconvVersion": "1.1.6",
  "ImageOrientationPatientDICOM": [0.99961, -1e-16, -0.0279216, 1e-16, 1, 0],
  "ImageOrientationText": "Tra>Sag(-1.6)",
  "ImageType": [
    "ORIGINAL",
    "PRIMARY",
    "M",
    "ND",
    "MOSAIC"
],
  "ImagingFrequency": 123.254,
  "InPlanePhaseEncodingDirectionDICOM": "COL",
  "InstitutionAddress": "Xinjiekouwai Street No 19,Beijing,Haidian District,CN,100875",
  "InstitutionName": "Beijing Normal Universtiy/2773C4/",
  "InstitutionalDepartmentName": "Department",
  "MRAcquisitionType": "2D",
  "MagneticFieldStrength": 3,
  "Manufacturer": "Siemens",
  "ManufacturersModelName": "TrioTim",
  "MatrixCoilMode": "SENSE",
  "Modality": "MR",
  "NonlinearGradientCorrection": false,
  "PartialFourier": 1,
  "PatientPosition": "HFS",
  "PercentPhaseFOV": 100,
  "PercentSampling": 100,
  "PhaseEncodingDirection": "j-",
  "PhaseEncodingSteps": 64,
  "PhaseResolution": 1,
  "PixelBandwidth": 2520,
  "ProcedureStepDescription": "BNU_cst_2015^Guo.TaoMei",
  "ProtocolName": "ge_func_3x3x4_164",
  "PulseSequenceDetails": "%SiemensSeq%\\ep2d_bold",
  "ReceiveCoilName": "HeadMatrix",
  "ReconMatrixPE": 64,
  "RepetitionTime": 2,
  "SAR": 0.156983,
  "ScanOptions": "FS",
  "ScanningSequence": "EP",
  "SequenceName": "*epfid2d1_64",
  "SequenceVariant": "SK",
  "SeriesDescription": "ge_func_3x3x4_164",
  "SeriesNumber": 4,
  "ShimSetting": [-4517, -19415, -9815, 1152, -40, -382, -130, -10],
  "SliceThickness": 4,
  "SliceTiming": [0, 1.035, 0.0625, 1.095, 0.1225, 1.1575, 0.1825, 1.2175, 0.245, 1.2775, 0.305, 1.34, 0.365, 1.4, 0.4275, 1.46, 0.4875, 1.5225, 0.5475, 1.5825, 0.61, 1.6425, 0.67, 1.705, 0.73, 1.765, 0.7925, 1.825, 0.8525, 1.8875, 0.9125, 1.9475, 0.975],
  "SoftwareVersions": "syngo MR B17",
  "SpacingBetweenSlices": 4.6,
  "StationName": "MRC35193",
  "TaskName": "CognitiveControl",
  "TotalReadoutTime": 0.0289803,
  "TxRefAmp": 349.505,
  "dcmmeta_affine": [
    [-3.123781681060791, 3.124999945161469e-16, -0.1284395307302475, 105.38954162597656],
    [3.124999945161469e-16, 3.125, 1.2843953490007919e-17, -82.03162384033203],
    [-0.08725512027740479, 0.0, 4.598206520080566, -64.70685577392578],
    [0.0, 0.0, 0.0, 1.0]
],
  "dcmmeta_reorient_transform": [
    [0.0, -1.0, 0.0, 63.0],
    [1.0, 0.0, 0.0, 0.0],
    [0.0, 0.0, 1.0, 0.0],
    [0.0, 0.0, 0.0, 1.0]
],
  "dcmmeta_shape": [64, 64, 33, 164],
  "dcmmeta_slice_dim": 2,
  "dcmmeta_version": 0.6,
  "global": {
    "const": {
      "AcquisitionMatrix": [64, 0, 0, 64],
      "AngioFlag": "N",
      "BitsAllocated": 16,
      "BitsStored": 12,
      "Columns": 384,
      "EchoNumbers": 1,
      "EchoTime": 30.0,
      "EchoTrainLength": 1,
      "FlipAngle": 90.0,
      "HighBit": 11,
      "ImageOrientationPatient": [0.99961011506466, -1e-16, -0.0279216378532, 1e-16, 1.0, 0.0],
      "ImagePositionPatient": [-605.19459544032, -614.84337329864, -50.746033096157],
      "ImageType": [
        "ORIGINAL",
        "PRIMARY",
        "M",
        "ND",
        "MOSAIC"
],
      "ImagedNucleus": "1H",
      "ImagingFrequency": 123.253575,
      "InPlanePhaseEncodingDirection": "COL",
      "MRAcquisitionType": "2D",
      "MagneticFieldStrength": 3.0,
      "Manufacturer": "SIEMENS",
      "ManufacturerModelName": "TrioTim",
      "Modality": "MR",
      "NumberOfAverages": 1.0,
      "NumberOfPhaseEncodingSteps": 64,
      "PercentPhaseFieldOfView": 100.0,
      "PercentSampling": 100.0,
      "PerformedProcedureStepStartTime": "083631.234000",
      "PhotometricInterpretation": "MONOCHROME2",
      "PixelBandwidth": 2520.0,
      "PixelRepresentation": 0,
      "PixelSpacing": [3.125, 3.125],
      "ProtocolName": "ge_func_3x3x4_164",
      "RepetitionTime": 2000.0,
      "Rows": 384,
      "SAR": 0.15698293428721,
      "SamplesPerPixel": 1,
      "ScanOptions": "FS",
      "ScanningSequence": "EP",
      "SequenceName": "*epfid2d1_64",
      "SequenceVariant": "SK",
      "SeriesDescription": "ge_func_3x3x4_164",
      "SeriesNumber": 4,
      "SeriesTime": "090903.562000",
      "SliceLocation": -67.624272306952,
      "SliceThickness": 4.0,
      "SmallestImagePixelValue": 0,
      "SoftwareVersions": "syngo MR B17",
      "SpacingBetweenSlices": 4.5999999906919,
      "SpecificCharacterSet": "ISO_IR 100",
      "StudyID": "1",
      "StudyTime": "083631.109000",
      "TransmitCoilName": "Body",
      "VariableFlipAngleFlag": "N",
      "WindowCenterWidthExplanation": "Algo1",
      "dBdt": 0.0},
    "slices": {}
  },
  "time": {
    "samples": {
      "AcquisitionNumber": [1, 2, 3, 4, 5, 6, 7, 8, 9, 10, 11, 12, 13, 14, 15, 16, 17, 18, 19, 20, 21, 22, 23, 24, 25, 26, 27, 28, 29, 30, 31, 32, 33, 34, 35, 36, 37, 38, 39, 40, 41, 42, 43, 44, 45, 46, 47, 48, 49, 50, 51, 52, 53, 54, 55, 56, 57, 58, 59, 60, 61, 62, 63, 64, 65, 66, 67, 68, 69, 70, 71, 72, 73, 74, 75, 76, 77, 78, 79, 80, 81, 82, 83, 84, 85, 86, 87, 88, 89, 90, 91, 92, 93, 94, 95, 96, 97, 98, 99, 100, 101, 102, 103, 104, 105, 106, 107, 108, 109, 110, 111, 112, 113, 114, 115, 116, 117, 118, 119, 120, 121, 122, 123, 124, 125, 126, 127, 128, 129, 130, 131, 132, 133, 134, 135, 136, 137, 138, 139, 140, 141, 142, 143, 144, 145, 146, 147, 148, 149, 150, 151, 152, 153, 154, 155, 156, 157, 158, 159, 160, 161, 162, 163, 164],
      "AcquisitionTime": ["090815.055000", "090817.062500", "090819.072500", "090821.080000", "090823.087500", "090825.095000", "090827.105000", "090829.112500", "090831.120000", "090833.127500", "090835.135000", "090837.145000", "090839.152500", "090841.160000", "090843.167500", "090845.175000", "090847.185000", "090849.192500", "090851.200000", "090853.207500", "090855.215000", "090857.225000", "090859.232500", "090901.240000", "090903.247500", "090905.257500", "090907.265000", "090909.272500", "090911.280000", "090913.287500", "090915.297500", "090917.305000", "090919.312500", "090921.320000", "090923.327500", "090925.337500", "090927.345000", "090929.352500", "090931.360000", "090933.370000", "090935.377500", "090937.385000", "090939.392500", "090941.400000", "090943.410000", "090945.417500", "090947.425000", "090949.432500", "090951.440000", "090953.450000", "090955.457500", "090957.465000", "090959.472500", "091001.482500", "091003.490000", "091005.497500", "091007.505000", "091009.512500", "091011.522500", "091013.530000", "091015.537500", "091017.545000", "091019.552500", "091021.562500", "091023.570000", "091025.577500", "091027.585000", "091029.592500", "091031.602500", "091033.610000", "091035.617500", "091037.625000", "091039.635000", "091041.642500", "091043.650000", "091045.657500", "091047.665000", "091049.675000", "091051.682500", "091053.690000", "091055.697500", "091057.705000", "091059.715000", "091101.722500", "091103.730000", "091105.737500", "091107.747500", "091109.755000", "091111.762500", "091113.770000", "091115.777500", "091117.787500", "091119.795000", "091121.802500", "091123.810000", "091125.817500", "091127.827500", "091129.835000", "091131.842500", "091133.850000", "091135.860000", "091137.867500", "091139.875000", "091141.882500", "091143.890000", "091145.900000", "091147.907500", "091149.915000", "091151.922500", "091153.930000", "091155.940000", "091157.947500", "091159.955000", "091201.962500", "091203.970000", "091205.980000", "091207.987500", "091209.995000", "091212.002500", "091214.012500", "091216.020000", "091218.027500", "091220.035000", "091222.042500", "091224.052500", "091226.060000", "091228.067500", "091230.075000", "091232.082500", "091234.092500", "091236.100000", "091238.107500", "091240.115000", "091242.125000", "091244.132500", "091246.140000", "091248.147500", "091250.155000", "091252.165000", "091254.172500", "091256.180000", "091258.187500", "091300.195000", "091302.205000", "091304.212500", "091306.220000", "091308.227500", "091310.237500", "091312.245000", "091314.252500", "091316.260000", "091318.267500", "091320.277500", "091322.285000", "091324.292500", "091326.300000", "091328.307500", "091330.317500", "091332.325000", "091334.332500", "091336.340000", "091338.347500", "091340.357500", "091342.365000"],
      "ContentTime": ["090903.562000", "090903.562000", "090903.562000", "090903.578000", "090903.578000", "090903.578000", "090903.578000", "090903.593000", "090903.593000", "090903.593000", "090903.593000", "090903.609000", "090903.609000", "090903.609000", "090903.609000", "090903.609000", "090903.609000", "090903.625000", "090903.625000", "090903.625000", "090903.625000", "090903.625000", "090903.625000", "090943.562000", "090943.562000", "090943.562000", "090943.562000", "090943.578000", "090943.578000", "090943.578000", "090943.578000", "090943.593000", "090943.593000", "090943.593000", "090943.593000", "090943.593000", "090943.593000", "090943.593000", "090943.593000", "090943.609000", "090943.609000", "090943.609000", "090943.609000", "091023.562000", "091023.562000", "091023.562000", "091023.562000", "091023.562000", "091023.562000", "091023.562000", "091023.578000", "091023.578000", "091023.578000", "091023.578000", "091023.593000", "091023.593000", "091023.593000", "091023.593000", "091023.593000", "091023.593000", "091023.593000", "091023.593000", "091023.609000", "091103.562000", "091103.562000", "091103.562000", "091103.562000", "091103.578000", "091103.578000", "091103.578000", "091103.578000", "091103.578000", "091103.593000", "091103.593000", "091103.593000", "091103.593000", "091103.593000", "091103.593000", "091103.593000", "091103.593000", "091103.609000", "091103.609000", "091103.609000", "091143.562000", "091143.562000", "091143.562000", "091143.578000", "091143.578000", "091143.578000", "091143.578000", "091143.578000", "091143.578000", "091143.578000", "091143.593000", "091143.593000", "091143.593000", "091143.593000", "091143.593000", "091143.609000", "091143.609000", "091143.609000", "091143.609000", "091143.609000", "091223.562000", "091223.562000", "091223.562000", "091223.562000", "091223.562000", "091223.578000", "091223.578000", "091223.578000", "091223.578000", "091223.578000", "091223.593000", "091223.593000", "091223.593000", "091223.593000", "091223.593000", "091223.593000", "091223.593000", "091223.593000", "091223.609000", "091223.609000", "091303.562000", "091303.562000", "091303.562000", "091303.562000", "091303.562000", "091303.562000", "091303.562000", "091303.578000", "091303.578000", "091303.578000", "091303.578000", "091303.578000", "091303.578000", "091303.578000", "091303.578000", "091303.593000", "091303.593000", "091303.593000", "091303.593000", "091303.593000", "091343.562000", "091343.562000", "091343.562000", "091343.562000", "091343.578000", "091343.578000", "091343.578000", "091343.578000", "091343.578000", "091343.578000", "091343.593000", "091343.593000", "091343.593000", "091343.593000", "091343.593000", "091343.593000", "091343.593000", "091343.593000", "091343.609000", "091343.609000", "091344.203000"],
      "InstanceCreationTime": ["090903.562000", "090903.562000", "090903.562000", "090903.578000", "090903.578000", "090903.578000", "090903.578000", "090903.593000", "090903.593000", "090903.593000", "090903.593000", "090903.609000", "090903.609000", "090903.609000", "090903.609000", "090903.609000", "090903.609000", "090903.625000", "090903.625000", "090903.625000", "090903.625000", "090903.625000", "090903.625000", "090943.562000", "090943.562000", "090943.562000", "090943.562000", "090943.578000", "090943.578000", "090943.578000", "090943.578000", "090943.593000", "090943.593000", "090943.593000", "090943.593000", "090943.593000", "090943.593000", "090943.593000", "090943.593000", "090943.609000", "090943.609000", "090943.609000", "090943.609000", "091023.562000", "091023.562000", "091023.562000", "091023.562000", "091023.562000", "091023.562000", "091023.562000", "091023.578000", "091023.578000", "091023.578000", "091023.578000", "091023.593000", "091023.593000", "091023.593000", "091023.593000", "091023.593000", "091023.593000", "091023.593000", "091023.593000", "091023.609000", "091103.562000", "091103.562000", "091103.562000", "091103.562000", "091103.578000", "091103.578000", "091103.578000", "091103.578000", "091103.578000", "091103.593000", "091103.593000", "091103.593000", "091103.593000", "091103.593000", "091103.593000", "091103.593000", "091103.593000", "091103.609000", "091103.609000", "091103.609000", "091143.562000", "091143.562000", "091143.562000", "091143.578000", "091143.578000", "091143.578000", "091143.578000", "091143.578000", "091143.578000", "091143.578000", "091143.593000", "091143.593000", "091143.593000", "091143.593000", "091143.593000", "091143.609000", "091143.609000", "091143.609000", "091143.609000", "091143.609000", "091223.562000", "091223.562000", "091223.562000", "091223.562000", "091223.562000", "091223.578000", "091223.578000", "091223.578000", "091223.578000", "091223.578000", "091223.593000", "091223.593000", "091223.593000", "091223.593000", "091223.593000", "091223.593000", "091223.593000", "091223.593000", "091223.609000", "091223.609000", "091303.562000", "091303.562000", "091303.562000", "091303.562000", "091303.562000", "091303.562000", "091303.562000", "091303.578000", "091303.578000", "091303.578000", "091303.578000", "091303.578000", "091303.578000", "091303.578000", "091303.578000", "091303.593000", "091303.593000", "091303.593000", "091303.593000", "091303.593000", "091343.562000", "091343.562000", "091343.562000", "091343.562000", "091343.578000", "091343.578000", "091343.578000", "091343.578000", "091343.578000", "091343.578000", "091343.593000", "091343.593000", "091343.593000", "091343.593000", "091343.593000", "091343.593000", "091343.593000", "091343.593000", "091343.609000", "091343.609000", "091344.203000"],
      "InstanceNumber": [1, 2, 3, 4, 5, 6, 7, 8, 9, 10, 11, 12, 13, 14, 15, 16, 17, 18, 19, 20, 21, 22, 23, 24, 25, 26, 27, 28, 29, 30, 31, 32, 33, 34, 35, 36, 37, 38, 39, 40, 41, 42, 43, 44, 45, 46, 47, 48, 49, 50, 51, 52, 53, 54, 55, 56, 57, 58, 59, 60, 61, 62, 63, 64, 65, 66, 67, 68, 69, 70, 71, 72, 73, 74, 75, 76, 77, 78, 79, 80, 81, 82, 83, 84, 85, 86, 87, 88, 89, 90, 91, 92, 93, 94, 95, 96, 97, 98, 99, 100, 101, 102, 103, 104, 105, 106, 107, 108, 109, 110, 111, 112, 113, 114, 115, 116, 117, 118, 119, 120, 121, 122, 123, 124, 125, 126, 127, 128, 129, 130, 131, 132, 133, 134, 135, 136, 137, 138, 139, 140, 141, 142, 143, 144, 145, 146, 147, 148, 149, 150, 151, 152, 153, 154, 155, 156, 157, 158, 159, 160, 161, 162, 163, 164],
      "LargestImagePixelValue": [1539, 1516, 1642, 1469, 1465, 1629, 1800, 1459, 1485, 1462, 1734, 1465, 1460, 1478, 1553, 1467, 1470, 1534, 1831, 1477, 1473, 1459, 1464, 1478, 1554, 1472, 1465, 1462, 1465, 1496, 1478, 1562, 1468, 1501, 1471, 1483, 1476, 1483, 1661, 1458, 1471, 1474, 1740, 1463, 1469, 1470, 1707, 1472, 1481, 1465, 1473, 1506, 1483, 1603, 1466, 1460, 1481, 1467, 1465, 1485, 1528, 1467, 1474, 1480, 1482, 1497, 1489, 1490, 1480, 1628, 1481, 1729, 1467, 1484, 1478, 1491, 1493, 1469, 1480, 1480, 1484, 1465, 1479, 1762, 1474, 1487, 1475, 1487, 1483, 1476, 1473, 1460, 1491, 1476, 1476, 1469, 1476, 1546, 1476, 1480, 1486, 1486, 1476, 1471, 1604, 1469, 1652, 1489, 1573, 1478, 1484, 1479, 1679, 1473, 1475, 1472, 1528, 1722, 1569, 1470, 1463, 1500, 1475, 1737, 1471, 1615, 1466, 1475, 1468, 1479, 1479, 1477, 1484, 1766, 1480, 1474, 1748, 1736, 1487, 1475, 1468, 1507, 1484, 1480, 1465, 1640, 1454, 1475, 1468, 1627, 1466, 1469, 1533, 1535, 1479, 1464, 1475, 1455, 1595, 1467, 1483, 1470, 1492, 1463],
      "WindowCenter": [693.0, 689.0, 690.0, 689.0, 689.0, 689.0, 691.0, 688.0, 689.0, 688.0, 689.0, 687.0, 688.0, 689.0, 689.0, 689.0, 689.0, 689.0, 691.0, 689.0, 689.0, 689.0, 689.0, 689.0, 689.0, 688.0, 689.0, 688.0, 688.0, 690.0, 690.0, 691.0, 689.0, 689.0, 690.0, 691.0, 690.0, 690.0, 691.0, 690.0, 691.0, 690.0, 692.0, 689.0, 690.0, 690.0, 690.0, 689.0, 690.0, 690.0, 691.0, 691.0, 690.0, 689.0, 690.0, 691.0, 689.0, 689.0, 690.0, 689.0, 690.0, 688.0, 689.0, 690.0, 689.0, 689.0, 690.0, 691.0, 689.0, 692.0, 691.0, 692.0, 689.0, 690.0, 691.0, 690.0, 690.0, 690.0, 690.0, 691.0, 691.0, 690.0, 691.0, 693.0, 690.0, 690.0, 690.0, 690.0, 691.0, 691.0, 691.0, 690.0, 691.0, 690.0, 691.0, 691.0, 691.0, 692.0, 690.0, 690.0, 691.0, 690.0, 690.0, 692.0, 692.0, 689.0, 691.0, 690.0, 691.0, 690.0, 691.0, 691.0, 691.0, 689.0, 692.0, 692.0, 691.0, 690.0, 689.0, 690.0, 690.0, 691.0, 690.0, 692.0, 690.0, 690.0, 688.0, 690.0, 691.0, 690.0, 690.0, 690.0, 691.0, 693.0, 692.0, 691.0, 691.0, 691.0, 691.0, 692.0, 691.0, 691.0, 691.0, 691.0, 691.0, 693.0, 691.0, 692.0, 691.0, 692.0, 691.0, 691.0, 692.0, 691.0, 690.0, 690.0, 691.0, 690.0, 691.0, 691.0, 693.0, 692.0, 693.0, 692.0],
      "WindowWidth": [1472.0, 1464.0, 1466.0, 1464.0, 1463.0, 1462.0, 1467.0, 1461.0, 1462.0, 1461.0, 1463.0, 1459.0, 1462.0, 1462.0, 1464.0, 1462.0, 1463.0, 1462.0, 1467.0, 1465.0, 1464.0, 1463.0, 1464.0, 1463.0, 1464.0, 1461.0, 1464.0, 1460.0, 1461.0, 1466.0, 1466.0, 1467.0, 1463.0, 1464.0, 1465.0, 1467.0, 1466.0, 1465.0, 1468.0, 1466.0, 1468.0, 1466.0, 1469.0, 1462.0, 1464.0, 1465.0, 1465.0, 1462.0, 1466.0, 1466.0, 1467.0, 1468.0, 1464.0, 1464.0, 1465.0, 1468.0, 1464.0, 1462.0, 1465.0, 1463.0, 1464.0, 1460.0, 1463.0, 1466.0, 1464.0, 1463.0, 1467.0, 1467.0, 1464.0, 1469.0, 1468.0, 1470.0, 1463.0, 1466.0, 1467.0, 1467.0, 1466.0, 1465.0, 1466.0, 1467.0, 1468.0, 1467.0, 1468.0, 1473.0, 1466.0, 1466.0, 1466.0, 1466.0, 1468.0, 1469.0, 1467.0, 1465.0, 1468.0, 1467.0, 1468.0, 1467.0, 1467.0, 1469.0, 1466.0, 1466.0, 1469.0, 1466.0, 1466.0, 1470.0, 1470.0, 1463.0, 1468.0, 1467.0, 1468.0, 1465.0, 1468.0, 1468.0, 1468.0, 1463.0, 1470.0, 1471.0, 1468.0, 1465.0, 1463.0, 1465.0, 1467.0, 1467.0, 1465.0, 1469.0, 1465.0, 1465.0, 1461.0, 1466.0, 1467.0, 1465.0, 1465.0, 1467.0, 1467.0, 1473.0, 1470.0, 1469.0, 1467.0, 1468.0, 1468.0, 1470.0, 1467.0, 1468.0, 1468.0, 1468.0, 1468.0, 1472.0, 1469.0, 1470.0, 1467.0, 1471.0, 1468.0, 1468.0, 1469.0, 1469.0, 1467.0, 1466.0, 1467.0, 1466.0, 1467.0, 1468.0, 1473.0, 1471.0, 1472.0, 1470.0]
    },
    "slices": {}
  }
}