{
  "AcquisitionMatrixPE": 64,
  "AcquisitionNumber": 1,
  "AcquisitionTime": "13:37:30.437500",
  "BandwidthPerPixelPhaseEncode": 33.967,
  "BaseResolution": 64,
  "CoilCombinationMethod": "Sum of Squares",
  "CoilString": "C:HEA;HEP",
  "ConversionSoftware": "dcm2niix",
  "ConversionSoftwareVersion": "v1.0.20220720",
  "DerivedVendorReportedEchoSpacing": 0.000460005,
  "DeviceSerialNumber": "35193",
  "DwellTime": 3.1e-06,
  "EchoTime": 0.03,
  "EffectiveEchoSpacing": 0.000460005,
  "FlipAngle": 90,
  "HeudiconvVersion": "1.1.6",
  "ImageOrientationPatientDICOM": [0.999986, 0, 0.00523596, 0, 1, 0],
  "ImageOrientationText": "Tra>Sag(0.3)",
  "ImageType": [
    "ORIGINAL",
    "PRIMARY",
    "M",
    "ND",
    "MOSAIC"
],
  "ImagingFrequency": 123.254,
  "InPlanePhaseEncodingDirectionDICOM": "COL",
  "InstitutionAddress": "Xinjiekouwai Street No 19,Beijing,Haidian District,CN,100875",
  "InstitutionName": "BNU MRI Center",
  "InstitutionalDepartmentName": "Department",
  "MRAcquisitionType": "2D",
  "MagneticFieldStrength": 3,
  "Manufacturer": "Siemens",
  "ManufacturersModelName": "TrioTim",
  "MatrixCoilMode": "SENSE",
  "Modality": "MR",
  "NonlinearGradientCorrection": false,
  "PartialFourier": 1,
  "PatientPosition": "HFS",
  "PercentPhaseFOV": 100,
  "PercentSampling": 100,
  "PhaseEncodingDirection": "j-",
  "PhaseEncodingSteps": 64,
  "PhaseResolution": 1,
  "PixelBandwidth": 2520,
  "ProcedureStepDescription": "BNU_cst_2015^Guo.TaoMei",
  "ProtocolName": "ge_func_3x3x4_164",
  "PulseSequenceDetails": "%SiemensSeq%\\ep2d_bold",
  "ReceiveCoilName": "HeadMatrix",
  "ReconMatrixPE": 64,
  "RepetitionTime": 2,
  "SAR": 0.158742,
  "ScanOptions": "FS",
  "ScanningSequence": "EP",
  "SequenceName": "*epfid2d1_64",
  "SequenceVariant": "SK",
  "SeriesDescription": "ge_func_3x3x4_164",
  "SeriesNumber": 5,
  "ShimSetting": [-4525, -19417, -9848, 1263, -166, -445, -3, -88],
  "SliceThickness": 4,
  "SliceTiming": [0, 1.0325, 0.06, 1.095, 0.12, 1.155, 0.1825, 1.215, 0.2425, 1.2775, 0.3025, 1.3375, 0.365, 1.3975, 0.425, 1.46, 0.485, 1.52, 0.5475, 1.58, 0.6075, 1.6425, 0.6675, 1.7025, 0.73, 1.7625, 0.79, 1.825, 0.85, 1.885, 0.9125, 1.945, 0.9725],
  "SoftwareVersions": "syngo MR B17",
  "SpacingBetweenSlices": 4.6,
  "StationName": "MRC35193",
  "TaskName": "LanguageControl",
  "TotalReadoutTime": 0.0289803,
  "TxRefAmp": 313.686,
  "dcmmeta_affine": [
    [-3.1249570846557617, 0.0, 0.024085432291030884, 101.63735961914062],
    [0.0, 3.125, 0.0, -94.85090637207031],
    [0.0163623858243227, 0.0, 4.5999369621276855, -66.02620697021484],
    [0.0, 0.0, 0.0, 1.0]
],
  "dcmmeta_reorient_transform": [
    [0.0, -1.0, 0.0, 63.0],
    [1.0, 0.0, 0.0, 0.0],
    [0.0, 0.0, 1.0, 0.0],
    [0.0, 0.0, 0.0, 1.0]
],
  "dcmmeta_shape": [64, 64, 33, 164],
  "dcmmeta_slice_dim": 2,
  "dcmmeta_version": 0.6,
  "global": {
    "const": {
      "AcquisitionMatrix": [64, 0, 0, 64],
      "AngioFlag": "N",
      "BitsAllocated": 16,
      "BitsStored": 12,
      "Columns": 384,
      "EchoNumbers": 1,
      "EchoTime": 30.0,
      "EchoTrainLength": 1,
      "FlipAngle": 90.0,
      "HighBit": 11,
      "ImageOrientationPatient": [0.99998629224893, 0.0, 0.00523596354377, 0.0, 1.0, 0.0],
      "ImagePositionPatient": [-601.63050480244, -602.02409648895, -68.644187379191],
      "ImageType": [
        "ORIGINAL",
        "PRIMARY",
        "M",
        "ND",
        "MOSAIC"
],
      "ImagedNucleus": "1H",
      "ImagingFrequency": 123.25396,
      "InPlanePhaseEncodingDirection": "COL",
      "MRAcquisitionType": "2D",
      "MagneticFieldStrength": 3.0,
      "Manufacturer": "SIEMENS",
      "ManufacturerModelName": "TrioTim",
      "Modality": "MR",
      "NumberOfAverages": 1.0,
      "NumberOfPhaseEncodingSteps": 64,
      "PercentPhaseFieldOfView": 100.0,
      "PercentSampling": 100.0,
      "PerformedProcedureStepStartTime": "131514.328000",
      "PhotometricInterpretation": "MONOCHROME2",
      "PixelBandwidth": 2520.0,
      "PixelRepresentation": 0,
      "PixelSpacing": [3.125, 3.125],
      "ProtocolName": "ge_func_3x3x4_164",
      "RepetitionTime": 2000.0,
      "Rows": 384,
      "SAR": 0.15874227751322,
      "SamplesPerPixel": 1,
      "ScanOptions": "FS",
      "ScanningSequence": "EP",
      "SequenceName": "*epfid2d1_64",
      "SequenceVariant": "SK",
      "SeriesDescription": "ge_func_3x3x4_164",
      "SeriesNumber": 5,
      "SeriesTime": "133826.187000",
      "SliceLocation": -65.493131031793,
      "SliceThickness": 4.0,
      "SmallestImagePixelValue": 0,
      "SoftwareVersions": "syngo MR B17",
      "SpacingBetweenSlices": 4.6000000178018,
      "SpecificCharacterSet": "ISO_IR 100",
      "StudyID": "1",
      "StudyTime": "131514.265000",
      "TransmitCoilName": "Body",
      "VariableFlipAngleFlag": "N",
      "WindowCenterWidthExplanation": "Algo1",
      "dBdt": 0.0},
    "slices": {}
  },
  "time": {
    "samples": {
      "AcquisitionNumber": [1, 2, 3, 4, 5, 6, 7, 8, 9, 10, 11, 12, 13, 14, 15, 16, 17, 18, 19, 20, 21, 22, 23, 24, 25, 26, 27, 28, 29, 30, 31, 32, 33, 34, 35, 36, 37, 38, 39, 40, 41, 42, 43, 44, 45, 46, 47, 48, 49, 50, 51, 52, 53, 54, 55, 56, 57, 58, 59, 60, 61, 62, 63, 64, 65, 66, 67, 68, 69, 70, 71, 72, 73, 74, 75, 76, 77, 78, 79, 80, 81, 82, 83, 84, 85, 86, 87, 88, 89, 90, 91, 92, 93, 94, 95, 96, 97, 98, 99, 100, 101, 102, 103, 104, 105, 106, 107, 108, 109, 110, 111, 112, 113, 114, 115, 116, 117, 118, 119, 120, 121, 122, 123, 124, 125, 126, 127, 128, 129, 130, 131, 132, 133, 134, 135, 136, 137, 138, 139, 140, 141, 142, 143, 144, 145, 146, 147, 148, 149, 150, 151, 152, 153, 154, 155, 156, 157, 158, 159, 160, 161, 162, 163, 164],
      "AcquisitionTime": ["133730.437500", "133732.445000", "133734.452500", "133736.460000", "133738.470000", "133740.477500", "133742.485000", "133744.492500", "133746.502500", "133748.510000", "133750.517500", "133752.525000", "133754.532500", "133756.542500", "133758.550000", "133800.557500", "133802.565000", "133804.572500", "133806.582500", "133808.590000", "133810.597500", "133812.605000", "133814.612500", "133816.622500", "133818.630000", "133820.637500", "133822.645000", "133824.655000", "133826.662500", "133828.670000", "133830.677500", "133832.685000", "133834.695000", "133836.702500", "133838.710000", "133840.717500", "133842.725000", "133844.735000", "133846.742500", "133848.750000", "133850.757500", "133852.767500", "133854.775000", "133856.782500", "133858.790000", "133900.797500", "133902.807500", "133904.815000", "133906.822500", "133908.830000", "133910.837500", "133912.847500", "133914.855000", "133916.862500", "133918.870000", "133920.880000", "133922.887500", "133924.895000", "133926.902500", "133928.910000", "133930.920000", "133932.927500", "133934.935000", "133936.942500", "133938.950000", "133940.960000", "133942.967500", "133944.975000", "133946.982500", "133948.990000", "133951.000000", "133953.007500", "133955.015000", "133957.022500", "133959.032500", "134001.040000", "134003.047500", "134005.055000", "134007.062500", "134009.072500", "134011.080000", "134013.087500", "134015.095000", "134017.102500", "134019.112500", "134021.120000", "134023.127500", "134025.135000", "134027.145000", "134029.152500", "134031.160000", "134033.167500", "134035.175000", "134037.185000", "134039.192500", "134041.200000", "134043.207500", "134045.215000", "134047.225000", "134049.232500", "134051.240000", "134053.247500", "134055.257500", "134057.265000", "134059.272500", "134101.280000", "134103.287500", "134105.297500", "134107.305000", "134109.312500", "134111.320000", "134113.327500", "134115.337500", "134117.345000", "134119.352500", "134121.360000", "134123.367500", "134125.377500", "134127.385000", "134129.392500", "134131.400000", "134133.410000", "134135.417500", "134137.425000", "134139.432500", "134141.440000", "134143.450000", "134145.457500", "134147.465000", "134149.472500", "134151.480000", "134153.490000", "134155.497500", "134157.505000", "134159.512500", "134201.522500", "134203.530000", "134205.537500", "134207.545000", "134209.552500", "134211.562500", "134213.570000", "134215.577500", "134217.585000", "134219.592500", "134221.602500", "134223.610000", "134225.617500", "134227.625000", "134229.635000", "134231.642500", "134233.650000", "134235.657500", "134237.665000", "134239.675000", "134241.682500", "134243.690000", "134245.697500", "134247.705000", "134249.715000", "134251.722500", "134253.730000", "134255.737500", "134257.745000"],
      "ContentTime": ["133826.203000", "133826.203000", "133826.203000", "133826.203000", "133826.203000", "133826.203000", "133826.218000", "133826.218000", "133826.218000", "133826.218000", "133826.218000", "133826.218000", "133826.218000", "133826.218000", "133826.234000", "133826.234000", "133826.234000", "133826.234000", "133826.250000", "133826.250000", "133826.250000", "133826.250000", "133826.250000", "133826.265000", "133826.265000", "133826.265000", "133826.265000", "133906.171000", "133906.187000", "133906.187000", "133906.187000", "133906.187000", "133906.187000", "133906.187000", "133906.187000", "133906.187000", "133906.203000", "133906.203000", "133906.203000", "133906.203000", "133906.203000", "133906.218000", "133906.218000", "133906.218000", "133906.218000", "133906.218000", "133906.218000", "133946.171000", "133946.187000", "133946.187000", "133946.187000", "133946.187000", "133946.187000", "133946.187000", "133946.187000", "133946.187000", "133946.203000", "133946.203000", "133946.203000", "133946.203000", "133946.218000", "133946.218000", "133946.218000", "133946.218000", "133946.218000", "133946.234000", "133946.234000", "134026.171000", "134026.187000", "134026.187000", "134026.187000", "134026.187000", "134026.187000", "134026.203000", "134026.203000", "134026.203000", "134026.203000", "134026.203000", "134026.203000", "134026.203000", "134026.203000", "134026.218000", "134026.218000", "134026.218000", "134026.218000", "134026.218000", "134026.218000", "134106.171000", "134106.187000", "134106.187000", "134106.187000", "134106.187000", "134106.203000", "134106.203000", "134106.203000", "134106.203000", "134106.203000", "134106.203000", "134106.218000", "134106.218000", "134106.218000", "134106.218000", "134106.218000", "134106.218000", "134106.234000", "134106.234000", "134106.234000", "134146.171000", "134146.171000", "134146.187000", "134146.187000", "134146.187000", "134146.187000", "134146.187000", "134146.187000", "134146.187000", "134146.203000", "134146.203000", "134146.203000", "134146.203000", "134146.203000", "134146.203000", "134146.203000", "134146.203000", "134146.218000", "134146.218000", "134146.218000", "134226.171000", "134226.187000", "134226.187000", "134226.187000", "134226.187000", "134226.187000", "134226.203000", "134226.203000", "134226.203000", "134226.203000", "134226.218000", "134226.218000", "134226.218000", "134226.218000", "134226.218000", "134226.218000", "134226.218000", "134226.234000", "134226.234000", "134226.234000", "134259.546000", "134259.562000", "134259.562000", "134259.562000", "134259.562000", "134259.562000", "134259.578000", "134259.578000", "134259.578000", "134259.578000", "134259.578000", "134259.578000", "134259.578000", "134259.593000", "134259.593000", "134259.593000", "134259.593000"],
      "InstanceCreationTime": ["133826.203000", "133826.203000", "133826.203000", "133826.203000", "133826.203000", "133826.203000", "133826.218000", "133826.218000", "133826.218000", "133826.218000", "133826.218000", "133826.218000", "133826.218000", "133826.218000", "133826.234000", "133826.234000", "133826.234000", "133826.234000", "133826.250000", "133826.250000", "133826.250000", "133826.250000", "133826.250000", "133826.265000", "133826.265000", "133826.265000", "133826.265000", "133906.171000", "133906.187000", "133906.187000", "133906.187000", "133906.187000", "133906.187000", "133906.187000", "133906.187000", "133906.187000", "133906.203000", "133906.203000", "133906.203000", "133906.203000", "133906.203000", "133906.218000", "133906.218000", "133906.218000", "133906.218000", "133906.218000", "133906.218000", "133946.171000", "133946.187000", "133946.187000", "133946.187000", "133946.187000", "133946.187000", "133946.187000", "133946.187000", "133946.187000", "133946.203000", "133946.203000", "133946.203000", "133946.203000", "133946.218000", "133946.218000", "133946.218000", "133946.218000", "133946.218000", "133946.234000", "133946.234000", "134026.171000", "134026.187000", "134026.187000", "134026.187000", "134026.187000", "134026.187000", "134026.203000", "134026.203000", "134026.203000", "134026.203000", "134026.203000", "134026.203000", "134026.203000", "134026.203000", "134026.218000", "134026.218000", "134026.218000", "134026.218000", "134026.218000", "134026.218000", "134106.171000", "134106.187000", "134106.187000", "134106.187000", "134106.187000", "134106.203000", "134106.203000", "134106.203000", "134106.203000", "134106.203000", "134106.203000", "134106.218000", "134106.218000", "134106.218000", "134106.218000", "134106.218000", "134106.218000", "134106.234000", "134106.234000", "134106.234000", "134146.171000", "134146.171000", "134146.187000", "134146.187000", "134146.187000", "134146.187000", "134146.187000", "134146.187000", "134146.187000", "134146.203000", "134146.203000", "134146.203000", "134146.203000", "134146.203000", "134146.203000", "134146.203000", "134146.203000", "134146.218000", "134146.218000", "134146.218000", "134226.171000", "134226.187000", "134226.187000", "134226.187000", "134226.187000", "134226.187000", "134226.203000", "134226.203000", "134226.203000", "134226.203000", "134226.218000", "134226.218000", "134226.218000", "134226.218000", "134226.218000", "134226.218000", "134226.218000", "134226.234000", "134226.234000", "134226.234000", "134259.546000", "134259.562000", "134259.562000", "134259.562000", "134259.562000", "134259.562000", "134259.578000", "134259.578000", "134259.578000", "134259.578000", "134259.578000", "134259.578000", "134259.578000", "134259.593000", "134259.593000", "134259.593000", "134259.593000"],
      "InstanceNumber": [1, 2, 3, 4, 5, 6, 7, 8, 9, 10, 11, 12, 13, 14, 15, 16, 17, 18, 19, 20, 21, 22, 23, 24, 25, 26, 27, 28, 29, 30, 31, 32, 33, 34, 35, 36, 37, 38, 39, 40, 41, 42, 43, 44, 45, 46, 47, 48, 49, 50, 51, 52, 53, 54, 55, 56, 57, 58, 59, 60, 61, 62, 63, 64, 65, 66, 67, 68, 69, 70, 71, 72, 73, 74, 75, 76, 77, 78, 79, 80, 81, 82, 83, 84, 85, 86, 87, 88, 89, 90, 91, 92, 93, 94, 95, 96, 97, 98, 99, 100, 101, 102, 103, 104, 105, 106, 107, 108, 109, 110, 111, 112, 113, 114, 115, 116, 117, 118, 119, 120, 121, 122, 123, 124, 125, 126, 127, 128, 129, 130, 131, 132, 133, 134, 135, 136, 137, 138, 139, 140, 141, 142, 143, 144, 145, 146, 147, 148, 149, 150, 151, 152, 153, 154, 155, 156, 157, 158, 159, 160, 161, 162, 163, 164],
      "LargestImagePixelValue": [2007, 1917, 1896, 1871, 1873, 1812, 1894, 1825, 1877, 1930, 1861, 1847, 1872, 1837, 1794, 1905, 1867, 1864, 1859, 1858, 1850, 1866, 1870, 1849, 1865, 1857, 1856, 1840, 1850, 1857, 1862, 1866, 1871, 1855, 1852, 1856, 1873, 1811, 1949, 1843, 1830, 1823, 1826, 1838, 1807, 1815, 1862, 1842, 1843, 1821, 1847, 1828, 1856, 1848, 1867, 1860, 1865, 1900, 1843, 1851, 1793, 1933, 1875, 2035, 1860, 1867, 1867, 1882, 1869, 1849, 1853, 1863, 1854, 1870, 1840, 1866, 1826, 1875, 1856, 1933, 1830, 1857, 1835, 1854, 1835, 1852, 1838, 1857, 1847, 1875, 1867, 1845, 1834, 1847, 1843, 1818, 1864, 1845, 1873, 1885, 1869, 1860, 1832, 1930, 1809, 1859, 1840, 1788, 1880, 1909, 1837, 1879, 1865, 1865, 1867, 1883, 1876, 1860, 1854, 1885, 1871, 1869, 1886, 1867, 1885, 1880, 1819, 1822, 1831, 1879, 1848, 1858, 1864, 1869, 1876, 1895, 1878, 1842, 1885, 1871, 1874, 1866, 1833, 1868, 1877, 1881, 1888, 1872, 1851, 1869, 1861, 1885, 1876, 1851, 1876, 1870, 1869, 1882, 1869, 1985, 1859, 1866, 1858, 1846],
      "WindowCenter": [711.0, 708.0, 708.0, 708.0, 707.0, 707.0, 707.0, 706.0, 704.0, 704.0, 703.0, 701.0, 702.0, 701.0, 701.0, 701.0, 701.0, 701.0, 701.0, 702.0, 702.0, 702.0, 703.0, 702.0, 702.0, 701.0, 701.0, 702.0, 702.0, 704.0, 703.0, 704.0, 703.0, 701.0, 701.0, 701.0, 701.0, 702.0, 702.0, 701.0, 701.0, 700.0, 702.0, 700.0, 700.0, 699.0, 700.0, 701.0, 701.0, 700.0, 700.0, 701.0, 702.0, 701.0, 701.0, 701.0, 702.0, 704.0, 703.0, 702.0, 701.0, 702.0, 700.0, 700.0, 700.0, 700.0, 700.0, 702.0, 701.0, 702.0, 702.0, 702.0, 700.0, 701.0, 702.0, 702.0, 702.0, 701.0, 702.0, 702.0, 701.0, 702.0, 700.0, 701.0, 700.0, 700.0, 701.0, 700.0, 702.0, 701.0, 701.0, 701.0, 701.0, 702.0, 701.0, 701.0, 701.0, 700.0, 701.0, 702.0, 702.0, 702.0, 699.0, 702.0, 701.0, 701.0, 701.0, 702.0, 702.0, 703.0, 702.0, 702.0, 701.0, 701.0, 701.0, 701.0, 702.0, 702.0, 702.0, 702.0, 702.0, 701.0, 701.0, 701.0, 702.0, 702.0, 701.0, 700.0, 700.0, 701.0, 702.0, 703.0, 702.0, 701.0, 701.0, 702.0, 703.0, 702.0, 703.0, 702.0, 703.0, 701.0, 702.0, 702.0, 702.0, 703.0, 703.0, 702.0, 702.0, 702.0, 702.0, 703.0, 703.0, 702.0, 702.0, 702.0, 703.0, 703.0, 702.0, 702.0, 702.0, 702.0, 703.0, 703.0],
      "WindowWidth": [1546.0, 1539.0, 1539.0, 1537.0, 1536.0, 1534.0, 1534.0, 1532.0, 1527.0, 1527.0, 1522.0, 1517.0, 1519.0, 1518.0, 1517.0, 1518.0, 1518.0, 1519.0, 1517.0, 1520.0, 1521.0, 1521.0, 1523.0, 1522.0, 1522.0, 1518.0, 1519.0, 1521.0, 1522.0, 1526.0, 1522.0, 1526.0, 1525.0, 1519.0, 1518.0, 1520.0, 1517.0, 1522.0, 1521.0, 1518.0, 1518.0, 1515.0, 1520.0, 1517.0, 1515.0, 1513.0, 1515.0, 1519.0, 1518.0, 1516.0, 1516.0, 1519.0, 1521.0, 1519.0, 1518.0, 1519.0, 1521.0, 1528.0, 1524.0, 1521.0, 1517.0, 1521.0, 1516.0, 1516.0, 1514.0, 1516.0, 1516.0, 1520.0, 1519.0, 1520.0, 1521.0, 1521.0, 1516.0, 1517.0, 1521.0, 1522.0, 1520.0, 1518.0, 1521.0, 1522.0, 1519.0, 1521.0, 1516.0, 1518.0, 1516.0, 1516.0, 1517.0, 1517.0, 1520.0, 1518.0, 1519.0, 1519.0, 1518.0, 1522.0, 1519.0, 1519.0, 1519.0, 1516.0, 1519.0, 1520.0, 1521.0, 1520.0, 1513.0, 1521.0, 1518.0, 1517.0, 1517.0, 1522.0, 1523.0, 1523.0, 1522.0, 1521.0, 1518.0, 1519.0, 1518.0, 1520.0, 1522.0, 1522.0, 1520.0, 1522.0, 1522.0, 1519.0, 1518.0, 1518.0, 1521.0, 1521.0, 1519.0, 1515.0, 1515.0, 1520.0, 1521.0, 1523.0, 1521.0, 1518.0, 1519.0, 1521.0, 1524.0, 1521.0, 1523.0, 1522.0, 1523.0, 1519.0, 1521.0, 1521.0, 1522.0, 1523.0, 1523.0, 1522.0, 1520.0, 1521.0, 1522.0, 1523.0, 1523.0, 1522.0, 1522.0, 1522.0, 1523.0, 1524.0, 1521.0, 1521.0, 1521.0, 1522.0, 1525.0, 1525.0]
    },
    "slices": {}
  }
}