{
  "AcquisitionMatrixPE": 64,
  "AcquisitionNumber": 1,
  "AcquisitionTime": "13:31:21.320000",
  "BandwidthPerPixelPhaseEncode": 33.967,
  "BaseResolution": 64,
  "CoilCombinationMethod": "Sum of Squares",
  "CoilString": "C:HEA;HEP",
  "ConversionSoftware": "dcm2niix",
  "ConversionSoftwareVersion": "v1.0.20220720",
  "DerivedVendorReportedEchoSpacing": 0.000460005,
  "DeviceSerialNumber": "35193",
  "DwellTime": 3.1e-06,
  "EchoTime": 0.03,
  "EffectiveEchoSpacing": 0.000460005,
  "FlipAngle": 90,
  "HeudiconvVersion": "1.1.6",
  "ImageOrientationPatientDICOM": [0.999986, 0, 0.00523596, 0, 1, 0],
  "ImageOrientationText": "Tra>Sag(0.3)",
  "ImageType": [
    "ORIGINAL",
    "PRIMARY",
    "M",
    "ND",
    "MOSAIC"
],
  "ImagingFrequency": 123.254,
  "InPlanePhaseEncodingDirectionDICOM": "COL",
  "InstitutionAddress": "Xinjiekouwai Street No 19,Beijing,Haidian District,CN,100875",
  "InstitutionName": "BNU MRI Center",
  "InstitutionalDepartmentName": "Department",
  "MRAcquisitionType": "2D",
  "MagneticFieldStrength": 3,
  "Manufacturer": "Siemens",
  "ManufacturersModelName": "TrioTim",
  "MatrixCoilMode": "SENSE",
  "Modality": "MR",
  "NonlinearGradientCorrection": false,
  "PartialFourier": 1,
  "PatientPosition": "HFS",
  "PercentPhaseFOV": 100,
  "PercentSampling": 100,
  "PhaseEncodingDirection": "j-",
  "PhaseEncodingSteps": 64,
  "PhaseResolution": 1,
  "PixelBandwidth": 2520,
  "ProcedureStepDescription": "BNU_cst_2015^Guo.TaoMei",
  "ProtocolName": "ge_func_3x3x4_164",
  "PulseSequenceDetails": "%SiemensSeq%\\ep2d_bold",
  "ReceiveCoilName": "HeadMatrix",
  "ReconMatrixPE": 64,
  "RepetitionTime": 2,
  "SAR": 0.158742,
  "ScanOptions": "FS",
  "ScanningSequence": "EP",
  "SequenceName": "*epfid2d1_64",
  "SequenceVariant": "SK",
  "SeriesDescription": "ge_func_3x3x4_164",
  "SeriesNumber": 4,
  "ShimSetting": [-4525, -19417, -9848, 1263, -166, -445, -3, -88],
  "SliceThickness": 4,
  "SliceTiming": [0, 1.035, 0.0625, 1.095, 0.1225, 1.1575, 0.1825, 1.2175, 0.245, 1.2775, 0.305, 1.34, 0.365, 1.4, 0.4275, 1.46, 0.4875, 1.5225, 0.5475, 1.5825, 0.61, 1.6425, 0.67, 1.705, 0.73, 1.765, 0.7925, 1.825, 0.8525, 1.8875, 0.9125, 1.9475, 0.975],
  "SoftwareVersions": "syngo MR B17",
  "SpacingBetweenSlices": 4.6,
  "StationName": "MRC35193",
  "TaskName": "LanguageControl",
  "TotalReadoutTime": 0.0289803,
  "TxRefAmp": 313.686,
  "dcmmeta_affine": [
    [-3.1249570846557617, 0.0, 0.024085432291030884, 101.63735961914062],
    [0.0, 3.125, 0.0, -94.85090637207031],
    [0.0163623858243227, 0.0, 4.5999369621276855, -66.02620697021484],
    [0.0, 0.0, 0.0, 1.0]
],
  "dcmmeta_reorient_transform": [
    [0.0, -1.0, 0.0, 63.0],
    [1.0, 0.0, 0.0, 0.0],
    [0.0, 0.0, 1.0, 0.0],
    [0.0, 0.0, 0.0, 1.0]
],
  "dcmmeta_shape": [64, 64, 33, 164],
  "dcmmeta_slice_dim": 2,
  "dcmmeta_version": 0.6,
  "global": {
    "const": {
      "AcquisitionMatrix": [64, 0, 0, 64],
      "AngioFlag": "N",
      "BitsAllocated": 16,
      "BitsStored": 12,
      "Columns": 384,
      "EchoNumbers": 1,
      "EchoTime": 30.0,
      "EchoTrainLength": 1,
      "FlipAngle": 90.0,
      "HighBit": 11,
      "ImageOrientationPatient": [0.99998629224893, 0.0, 0.00523596354377, 0.0, 1.0, 0.0],
      "ImagePositionPatient": [-601.63050480244, -602.02409648895, -68.644187379191],
      "ImageType": [
        "ORIGINAL",
        "PRIMARY",
        "M",
        "ND",
        "MOSAIC"
],
      "ImagedNucleus": "1H",
      "ImagingFrequency": 123.25396,
      "InPlanePhaseEncodingDirection": "COL",
      "MRAcquisitionType": "2D",
      "MagneticFieldStrength": 3.0,
      "Manufacturer": "SIEMENS",
      "ManufacturerModelName": "TrioTim",
      "Modality": "MR",
      "NumberOfAverages": 1.0,
      "NumberOfPhaseEncodingSteps": 64,
      "PercentPhaseFieldOfView": 100.0,
      "PercentSampling": 100.0,
      "PerformedProcedureStepStartTime": "131514.328000",
      "PhotometricInterpretation": "MONOCHROME2",
      "PixelBandwidth": 2520.0,
      "PixelRepresentation": 0,
      "PixelSpacing": [3.125, 3.125],
      "ProtocolName": "ge_func_3x3x4_164",
      "RepetitionTime": 2000.0,
      "Rows": 384,
      "SAR": 0.15874227751322,
      "SamplesPerPixel": 1,
      "ScanOptions": "FS",
      "ScanningSequence": "EP",
      "SequenceName": "*epfid2d1_64",
      "SequenceVariant": "SK",
      "SeriesDescription": "ge_func_3x3x4_164",
      "SeriesNumber": 4,
      "SeriesTime": "133217.656000",
      "SliceLocation": -65.493131031793,
      "SliceThickness": 4.0,
      "SmallestImagePixelValue": 0,
      "SoftwareVersions": "syngo MR B17",
      "SpacingBetweenSlices": 4.6000000178018,
      "SpecificCharacterSet": "ISO_IR 100",
      "StudyID": "1",
      "StudyTime": "131514.265000",
      "TransmitCoilName": "Body",
      "VariableFlipAngleFlag": "N",
      "WindowCenterWidthExplanation": "Algo1",
      "dBdt": 0.0},
    "slices": {}
  },
  "time": {
    "samples": {
      "AcquisitionNumber": [1, 2, 3, 4, 5, 6, 7, 8, 9, 10, 11, 12, 13, 14, 15, 16, 17, 18, 19, 20, 21, 22, 23, 24, 25, 26, 27, 28, 29, 30, 31, 32, 33, 34, 35, 36, 37, 38, 39, 40, 41, 42, 43, 44, 45, 46, 47, 48, 49, 50, 51, 52, 53, 54, 55, 56, 57, 58, 59, 60, 61, 62, 63, 64, 65, 66, 67, 68, 69, 70, 71, 72, 73, 74, 75, 76, 77, 78, 79, 80, 81, 82, 83, 84, 85, 86, 87, 88, 89, 90, 91, 92, 93, 94, 95, 96, 97, 98, 99, 100, 101, 102, 103, 104, 105, 106, 107, 108, 109, 110, 111, 112, 113, 114, 115, 116, 117, 118, 119, 120, 121, 122, 123, 124, 125, 126, 127, 128, 129, 130, 131, 132, 133, 134, 135, 136, 137, 138, 139, 140, 141, 142, 143, 144, 145, 146, 147, 148, 149, 150, 151, 152, 153, 154, 155, 156, 157, 158, 159, 160, 161, 162, 163, 164],
      "AcquisitionTime": ["133121.320000", "133123.327500", "133125.337500", "133127.345000", "133129.352500", "133131.360000", "133133.367500", "133135.377500", "133137.385000", "133139.392500", "133141.400000", "133143.410000", "133145.417500", "133147.425000", "133149.432500", "133151.440000", "133153.450000", "133155.457500", "133157.465000", "133159.472500", "133201.480000", "133203.490000", "133205.497500", "133207.505000", "133209.512500", "133211.522500", "133213.530000", "133215.537500", "133217.545000", "133219.552500", "133221.562500", "133223.570000", "133225.577500", "133227.585000", "133229.592500", "133231.602500", "133233.610000", "133235.617500", "133237.625000", "133239.635000", "133241.642500", "133243.650000", "133245.657500", "133247.665000", "133249.675000", "133251.682500", "133253.690000", "133255.697500", "133257.705000", "133259.715000", "133301.722500", "133303.730000", "133305.737500", "133307.747500", "133309.755000", "133311.762500", "133313.770000", "133315.777500", "133317.787500", "133319.795000", "133321.802500", "133323.810000", "133325.817500", "133327.827500", "133329.835000", "133331.842500", "133333.850000", "133335.857500", "133337.867500", "133339.875000", "133341.882500", "133343.890000", "133345.900000", "133347.907500", "133349.915000", "133351.922500", "133353.930000", "133355.940000", "133357.947500", "133359.955000", "133401.962500", "133403.970000", "133405.980000", "133407.987500", "133409.995000", "133412.002500", "133414.012500", "133416.020000", "133418.027500", "133420.035000", "133422.042500", "133424.052500", "133426.060000", "133428.067500", "133430.075000", "133432.082500", "133434.092500", "133436.100000", "133438.107500", "133440.115000", "133442.125000", "133444.132500", "133446.140000", "133448.147500", "133450.155000", "133452.165000", "133454.172500", "133456.180000", "133458.187500", "133500.195000", "133502.205000", "133504.212500", "133506.220000", "133508.227500", "133510.235000", "133512.245000", "133514.252500", "133516.260000", "133518.267500", "133520.277500", "133522.285000", "133524.292500", "133526.300000", "133528.307500", "133530.317500", "133532.325000", "133534.332500", "133536.340000", "133538.347500", "133540.357500", "133542.365000", "133544.372500", "133546.380000", "133548.390000", "133550.397500", "133552.405000", "133554.412500", "133556.420000", "133558.430000", "133600.437500", "133602.445000", "133604.452500", "133606.460000", "133608.470000", "133610.477500", "133612.485000", "133614.492500", "133616.502500", "133618.510000", "133620.517500", "133622.525000", "133624.532500", "133626.542500", "133628.550000", "133630.557500", "133632.565000", "133634.572500", "133636.582500", "133638.590000", "133640.597500", "133642.605000", "133644.612500", "133646.622500", "133648.630000"],
      "ContentTime": ["133217.656000", "133217.656000", "133217.656000", "133217.656000", "133217.656000", "133217.671000", "133217.671000", "133217.671000", "133217.671000", "133217.671000", "133217.671000", "133217.671000", "133217.671000", "133217.687000", "133217.687000", "133217.687000", "133217.687000", "133217.687000", "133217.703000", "133217.703000", "133217.703000", "133217.703000", "133217.703000", "133217.718000", "133217.718000", "133217.718000", "133217.734000", "133217.734000", "133257.640000", "133257.656000", "133257.656000", "133257.656000", "133257.656000", "133257.656000", "133257.656000", "133257.656000", "133257.656000", "133257.671000", "133257.671000", "133257.671000", "133257.671000", "133257.671000", "133257.687000", "133257.687000", "133257.687000", "133257.687000", "133257.687000", "133257.687000", "133337.640000", "133337.656000", "133337.656000", "133337.656000", "133337.656000", "133337.656000", "133337.656000", "133337.671000", "133337.671000", "133337.671000", "133337.671000", "133337.671000", "133337.671000", "133337.671000", "133337.687000", "133337.687000", "133337.687000", "133337.687000", "133337.687000", "133337.687000", "133417.640000", "133417.640000", "133417.656000", "133417.656000", "133417.656000", "133417.656000", "133417.671000", "133417.671000", "133417.671000", "133417.671000", "133417.671000", "133417.671000", "133417.671000", "133417.671000", "133417.687000", "133417.687000", "133417.687000", "133417.687000", "133417.687000", "133417.687000", "133457.640000", "133457.656000", "133457.656000", "133457.656000", "133457.656000", "133457.671000", "133457.671000", "133457.671000", "133457.671000", "133457.671000", "133457.671000", "133457.671000", "133457.671000", "133457.687000", "133457.687000", "133457.687000", "133457.687000", "133457.687000", "133457.687000", "133457.703000", "133537.640000", "133537.656000", "133537.656000", "133537.656000", "133537.656000", "133537.656000", "133537.656000", "133537.671000", "133537.671000", "133537.671000", "133537.671000", "133537.671000", "133537.671000", "133537.687000", "133537.687000", "133537.687000", "133537.687000", "133537.687000", "133537.687000", "133537.687000", "133617.640000", "133617.656000", "133617.656000", "133617.656000", "133617.656000", "133617.656000", "133617.656000", "133617.656000", "133617.656000", "133617.671000", "133617.671000", "133617.671000", "133617.671000", "133617.671000", "133617.671000", "133617.671000", "133617.671000", "133617.687000", "133617.687000", "133617.687000", "133649.546000", "133649.546000", "133649.562000", "133649.562000", "133649.562000", "133649.562000", "133649.562000", "133649.562000", "133649.578000", "133649.578000", "133649.578000", "133649.578000", "133649.578000", "133649.578000", "133649.578000", "133649.578000"],
      "InstanceCreationTime": ["133217.656000", "133217.656000", "133217.656000", "133217.656000", "133217.656000", "133217.671000", "133217.671000", "133217.671000", "133217.671000", "133217.671000", "133217.671000", "133217.671000", "133217.671000", "133217.687000", "133217.687000", "133217.687000", "133217.687000", "133217.687000", "133217.703000", "133217.703000", "133217.703000", "133217.703000", "133217.703000", "133217.718000", "133217.718000", "133217.718000", "133217.734000", "133217.734000", "133257.640000", "133257.656000", "133257.656000", "133257.656000", "133257.656000", "133257.656000", "133257.656000", "133257.656000", "133257.656000", "133257.671000", "133257.671000", "133257.671000", "133257.671000", "133257.671000", "133257.687000", "133257.687000", "133257.687000", "133257.687000", "133257.687000", "133257.687000", "133337.640000", "133337.656000", "133337.656000", "133337.656000", "133337.656000", "133337.656000", "133337.656000", "133337.671000", "133337.671000", "133337.671000", "133337.671000", "133337.671000", "133337.671000", "133337.671000", "133337.687000", "133337.687000", "133337.687000", "133337.687000", "133337.687000", "133337.687000", "133417.640000", "133417.640000", "133417.656000", "133417.656000", "133417.656000", "133417.656000", "133417.671000", "133417.671000", "133417.671000", "133417.671000", "133417.671000", "133417.671000", "133417.671000", "133417.671000", "133417.687000", "133417.687000", "133417.687000", "133417.687000", "133417.687000", "133417.687000", "133457.640000", "133457.656000", "133457.656000", "133457.656000", "133457.656000", "133457.671000", "133457.671000", "133457.671000", "133457.671000", "133457.671000", "133457.671000", "133457.671000", "133457.671000", "133457.687000", "133457.687000", "133457.687000", "133457.687000", "133457.687000", "133457.687000", "133457.703000", "133537.640000", "133537.656000", "133537.656000", "133537.656000", "133537.656000", "133537.656000", "133537.656000", "133537.671000", "133537.671000", "133537.671000", "133537.671000", "133537.671000", "133537.671000", "133537.687000", "133537.687000", "133537.687000", "133537.687000", "133537.687000", "133537.687000", "133537.687000", "133617.640000", "133617.656000", "133617.656000", "133617.656000", "133617.656000", "133617.656000", "133617.656000", "133617.656000", "133617.656000", "133617.671000", "133617.671000", "133617.671000", "133617.671000", "133617.671000", "133617.671000", "133617.671000", "133617.671000", "133617.687000", "133617.687000", "133617.687000", "133649.546000", "133649.546000", "133649.562000", "133649.562000", "133649.562000", "133649.562000", "133649.562000", "133649.562000", "133649.578000", "133649.578000", "133649.578000", "133649.578000", "133649.578000", "133649.578000", "133649.578000", "133649.578000"],
      "InstanceNumber": [1, 2, 3, 4, 5, 6, 7, 8, 9, 10, 11, 12, 13, 14, 15, 16, 17, 18, 19, 20, 21, 22, 23, 24, 25, 26, 27, 28, 29, 30, 31, 32, 33, 34, 35, 36, 37, 38, 39, 40, 41, 42, 43, 44, 45, 46, 47, 48, 49, 50, 51, 52, 53, 54, 55, 56, 57, 58, 59, 60, 61, 62, 63, 64, 65, 66, 67, 68, 69, 70, 71, 72, 73, 74, 75, 76, 77, 78, 79, 80, 81, 82, 83, 84, 85, 86, 87, 88, 89, 90, 91, 92, 93, 94, 95, 96, 97, 98, 99, 100, 101, 102, 103, 104, 105, 106, 107, 108, 109, 110, 111, 112, 113, 114, 115, 116, 117, 118, 119, 120, 121, 122, 123, 124, 125, 126, 127, 128, 129, 130, 131, 132, 133, 134, 135, 136, 137, 138, 139, 140, 141, 142, 143, 144, 145, 146, 147, 148, 149, 150, 151, 152, 153, 154, 155, 156, 157, 158, 159, 160, 161, 162, 163, 164],
      "LargestImagePixelValue": [1932, 1875, 1834, 1895, 1781, 1861, 1826, 1820, 1807, 1801, 1802, 1801, 1878, 1794, 1794, 1805, 1811, 1810, 1803, 1817, 1794, 1874, 1804, 1815, 1802, 1788, 1790, 1802, 1784, 1805, 1786, 1792, 1787, 1775, 1787, 1767, 1782, 1779, 1836, 1834, 1804, 1807, 1798, 1841, 1798, 1793, 1803, 1805, 1810, 1794, 1794, 1803, 1780, 1798, 1822, 1802, 1796, 1821, 1808, 1855, 1828, 1813, 1801, 1791, 1813, 1841, 1811, 1824, 1827, 1831, 1825, 1817, 1858, 1842, 1875, 1840, 1838, 1852, 1838, 1837, 1820, 1832, 1844, 1846, 1830, 1843, 1822, 1832, 1837, 1823, 1852, 1833, 1868, 1837, 1836, 1826, 1820, 1834, 1854, 1851, 1836, 1921, 1884, 1841, 1855, 1834, 1851, 1829, 1853, 1842, 1856, 1855, 1870, 1844, 1851, 1856, 1846, 1855, 1857, 1852, 1864, 1855, 1853, 1873, 1857, 1848, 1856, 1863, 1872, 1863, 1860, 1855, 1856, 1858, 1842, 1861, 1848, 1857, 1859, 1842, 1863, 1842, 1878, 1851, 1841, 1885, 1847, 1841, 1846, 1858, 1858, 1854, 1864, 1852, 1846, 1848, 1822, 1850, 1865, 1839, 1841, 1856, 1833, 1815],
      "WindowCenter": [709.0, 706.0, 706.0, 708.0, 706.0, 704.0, 703.0, 703.0, 701.0, 703.0, 703.0, 703.0, 702.0, 702.0, 702.0, 702.0, 702.0, 701.0, 701.0, 701.0, 701.0, 701.0, 702.0, 704.0, 703.0, 701.0, 700.0, 700.0, 701.0, 702.0, 702.0, 703.0, 700.0, 700.0, 700.0, 700.0, 700.0, 700.0, 701.0, 702.0, 702.0, 702.0, 702.0, 702.0, 701.0, 701.0, 701.0, 700.0, 700.0, 701.0, 701.0, 701.0, 699.0, 701.0, 700.0, 703.0, 702.0, 701.0, 700.0, 701.0, 702.0, 701.0, 701.0, 700.0, 701.0, 701.0, 702.0, 701.0, 702.0, 702.0, 702.0, 702.0, 702.0, 702.0, 702.0, 701.0, 701.0, 703.0, 703.0, 702.0, 702.0, 701.0, 702.0, 701.0, 702.0, 702.0, 702.0, 701.0, 702.0, 702.0, 702.0, 703.0, 702.0, 702.0, 702.0, 702.0, 702.0, 701.0, 702.0, 703.0, 702.0, 703.0, 702.0, 702.0, 703.0, 703.0, 702.0, 702.0, 701.0, 701.0, 702.0, 701.0, 701.0, 701.0, 701.0, 702.0, 702.0, 702.0, 703.0, 704.0, 703.0, 703.0, 703.0, 704.0, 703.0, 702.0, 703.0, 701.0, 703.0, 702.0, 702.0, 701.0, 701.0, 702.0, 704.0, 704.0, 702.0, 702.0, 702.0, 702.0, 702.0, 702.0, 703.0, 703.0, 702.0, 703.0, 702.0, 702.0, 704.0, 703.0, 705.0, 704.0, 703.0, 702.0, 701.0, 701.0, 701.0, 702.0, 702.0, 701.0, 701.0, 701.0, 701.0, 701.0],
      "WindowWidth": [1541.0, 1533.0, 1532.0, 1538.0, 1530.0, 1527.0, 1524.0, 1522.0, 1519.0, 1523.0, 1522.0, 1524.0, 1520.0, 1521.0, 1520.0, 1521.0, 1520.0, 1517.0, 1517.0, 1519.0, 1519.0, 1519.0, 1522.0, 1526.0, 1524.0, 1518.0, 1516.0, 1516.0, 1518.0, 1520.0, 1522.0, 1522.0, 1516.0, 1516.0, 1516.0, 1516.0, 1517.0, 1515.0, 1518.0, 1522.0, 1522.0, 1520.0, 1520.0, 1520.0, 1520.0, 1517.0, 1518.0, 1516.0, 1517.0, 1518.0, 1517.0, 1518.0, 1514.0, 1517.0, 1515.0, 1525.0, 1521.0, 1517.0, 1515.0, 1519.0, 1521.0, 1519.0, 1519.0, 1515.0, 1517.0, 1517.0, 1520.0, 1519.0, 1521.0, 1522.0, 1522.0, 1520.0, 1521.0, 1520.0, 1520.0, 1519.0, 1519.0, 1524.0, 1523.0, 1521.0, 1520.0, 1519.0, 1521.0, 1519.0, 1520.0, 1521.0, 1520.0, 1520.0, 1520.0, 1521.0, 1521.0, 1523.0, 1520.0, 1522.0, 1520.0, 1522.0, 1521.0, 1519.0, 1520.0, 1523.0, 1522.0, 1523.0, 1521.0, 1521.0, 1525.0, 1524.0, 1522.0, 1522.0, 1519.0, 1520.0, 1520.0, 1519.0, 1519.0, 1518.0, 1519.0, 1522.0, 1520.0, 1521.0, 1525.0, 1525.0, 1526.0, 1524.0, 1525.0, 1525.0, 1525.0, 1522.0, 1523.0, 1520.0, 1524.0, 1522.0, 1522.0, 1518.0, 1518.0, 1522.0, 1528.0, 1528.0, 1522.0, 1521.0, 1521.0, 1521.0, 1521.0, 1522.0, 1524.0, 1523.0, 1521.0, 1523.0, 1522.0, 1521.0, 1526.0, 1525.0, 1528.0, 1526.0, 1524.0, 1521.0, 1517.0, 1518.0, 1518.0, 1520.0, 1521.0, 1520.0, 1519.0, 1519.0, 1519.0, 1520.0]
    },
    "slices": {}
  }
}