{
  "AcquisitionMatrixPE": 64,
  "AcquisitionNumber": 1,
  "AcquisitionTime": "13:18:23.887500",
  "BandwidthPerPixelPhaseEncode": 33.967,
  "BaseResolution": 64,
  "CoilCombinationMethod": "Sum of Squares",
  "CoilString": "C:HEA;HEP",
  "ConversionSoftware": "dcm2niix",
  "ConversionSoftwareVersion": "v1.0.20220720",
  "DerivedVendorReportedEchoSpacing": 0.000460005,
  "DeviceSerialNumber": "35193",
  "DwellTime": 3.1e-06,
  "EchoTime": 0.03,
  "EffectiveEchoSpacing": 0.000460005,
  "FlipAngle": 90,
  "HeudiconvVersion": "1.1.6",
  "ImageOrientationPatientDICOM": [0.999986, 0, 0.00523596, 0, 1, 0],
  "ImageOrientationText": "Tra>Sag(0.3)",
  "ImageType": [
    "ORIGINAL",
    "PRIMARY",
    "M",
    "ND",
    "MOSAIC"
],
  "ImagingFrequency": 123.254,
  "InPlanePhaseEncodingDirectionDICOM": "COL",
  "InstitutionAddress": "Xinjiekouwai Street No 19,Beijing,Haidian District,CN,100875",
  "InstitutionName": "BNU MRI Center",
  "InstitutionalDepartmentName": "Department",
  "MRAcquisitionType": "2D",
  "MagneticFieldStrength": 3,
  "Manufacturer": "Siemens",
  "ManufacturersModelName": "TrioTim",
  "MatrixCoilMode": "SENSE",
  "Modality": "MR",
  "NonlinearGradientCorrection": false,
  "PartialFourier": 1,
  "PatientPosition": "HFS",
  "PercentPhaseFOV": 100,
  "PercentSampling": 100,
  "PhaseEncodingDirection": "j-",
  "PhaseEncodingSteps": 64,
  "PhaseResolution": 1,
  "PixelBandwidth": 2520,
  "ProcedureStepDescription": "BNU_cst_2015^Guo.TaoMei",
  "ProtocolName": "ge_func_3x3x4_164",
  "PulseSequenceDetails": "%SiemensSeq%\\ep2d_bold",
  "ReceiveCoilName": "HeadMatrix",
  "ReconMatrixPE": 64,
  "RepetitionTime": 2,
  "SAR": 0.158742,
  "ScanOptions": "FS",
  "ScanningSequence": "EP",
  "SequenceName": "*epfid2d1_64",
  "SequenceVariant": "SK",
  "SeriesDescription": "ge_func_3x3x4_164",
  "SeriesNumber": 2,
  "ShimSetting": [-4525, -19417, -9848, 1263, -166, -445, -3, -88],
  "SliceThickness": 4,
  "SliceTiming": [0, 1.035, 0.06, 1.095, 0.1225, 1.155, 0.1825, 1.2175, 0.2425, 1.2775, 0.305, 1.3375, 0.365, 1.4, 0.425, 1.46, 0.4875, 1.52, 0.5475, 1.5825, 0.6075, 1.6425, 0.67, 1.7025, 0.73, 1.765, 0.79, 1.825, 0.8525, 1.885, 0.9125, 1.9475, 0.9725],
  "SoftwareVersions": "syngo MR B17",
  "SpacingBetweenSlices": 4.6,
  "StationName": "MRC35193",
  "TaskName": "CognitiveControl",
  "TotalReadoutTime": 0.0289803,
  "TxRefAmp": 313.686,
  "dcmmeta_affine": [
    [-3.1249570846557617, 0.0, 0.024085432291030884, 101.63735961914062],
    [0.0, 3.125, 0.0, -94.85090637207031],
    [0.0163623858243227, 0.0, 4.5999369621276855, -66.02620697021484],
    [0.0, 0.0, 0.0, 1.0]
],
  "dcmmeta_reorient_transform": [
    [0.0, -1.0, 0.0, 63.0],
    [1.0, 0.0, 0.0, 0.0],
    [0.0, 0.0, 1.0, 0.0],
    [0.0, 0.0, 0.0, 1.0]
],
  "dcmmeta_shape": [64, 64, 33, 164],
  "dcmmeta_slice_dim": 2,
  "dcmmeta_version": 0.6,
  "global": {
    "const": {
      "AcquisitionMatrix": [64, 0, 0, 64],
      "AngioFlag": "N",
      "BitsAllocated": 16,
      "BitsStored": 12,
      "Columns": 384,
      "EchoNumbers": 1,
      "EchoTime": 30.0,
      "EchoTrainLength": 1,
      "FlipAngle": 90.0,
      "HighBit": 11,
      "ImageOrientationPatient": [0.99998629224893, 0.0, 0.00523596354377, 0.0, 1.0, 0.0],
      "ImagePositionPatient": [-601.63050480244, -602.02409648895, -68.644187379191],
      "ImageType": [
        "ORIGINAL",
        "PRIMARY",
        "M",
        "ND",
        "MOSAIC"
],
      "ImagedNucleus": "1H",
      "ImagingFrequency": 123.253959,
      "InPlanePhaseEncodingDirection": "COL",
      "MRAcquisitionType": "2D",
      "MagneticFieldStrength": 3.0,
      "Manufacturer": "SIEMENS",
      "ManufacturerModelName": "TrioTim",
      "Modality": "MR",
      "NumberOfAverages": 1.0,
      "NumberOfPhaseEncodingSteps": 64,
      "PercentPhaseFieldOfView": 100.0,
      "PercentSampling": 100.0,
      "PerformedProcedureStepStartTime": "131514.328000",
      "PhotometricInterpretation": "MONOCHROME2",
      "PixelBandwidth": 2520.0,
      "PixelRepresentation": 0,
      "PixelSpacing": [3.125, 3.125],
      "ProtocolName": "ge_func_3x3x4_164",
      "RepetitionTime": 2000.0,
      "Rows": 384,
      "SAR": 0.15874227751322,
      "SamplesPerPixel": 1,
      "ScanOptions": "FS",
      "ScanningSequence": "EP",
      "SequenceName": "*epfid2d1_64",
      "SequenceVariant": "SK",
      "SeriesDescription": "ge_func_3x3x4_164",
      "SeriesNumber": 2,
      "SeriesTime": "131906.171000",
      "SliceLocation": -65.493131031793,
      "SliceThickness": 4.0,
      "SmallestImagePixelValue": 0,
      "SoftwareVersions": "syngo MR B17",
      "SpacingBetweenSlices": 4.6000000178018,
      "SpecificCharacterSet": "ISO_IR 100",
      "StudyID": "1",
      "StudyTime": "131514.265000",
      "TransmitCoilName": "Body",
      "VariableFlipAngleFlag": "N",
      "WindowCenterWidthExplanation": "Algo1",
      "dBdt": 0.0},
    "slices": {}
  },
  "time": {
    "samples": {
      "AcquisitionNumber": [1, 2, 3, 4, 5, 6, 7, 8, 9, 10, 11, 12, 13, 14, 15, 16, 17, 18, 19, 20, 21, 22, 23, 24, 25, 26, 27, 28, 29, 30, 31, 32, 33, 34, 35, 36, 37, 38, 39, 40, 41, 42, 43, 44, 45, 46, 47, 48, 49, 50, 51, 52, 53, 54, 55, 56, 57, 58, 59, 60, 61, 62, 63, 64, 65, 66, 67, 68, 69, 70, 71, 72, 73, 74, 75, 76, 77, 78, 79, 80, 81, 82, 83, 84, 85, 86, 87, 88, 89, 90, 91, 92, 93, 94, 95, 96, 97, 98, 99, 100, 101, 102, 103, 104, 105, 106, 107, 108, 109, 110, 111, 112, 113, 114, 115, 116, 117, 118, 119, 120, 121, 122, 123, 124, 125, 126, 127, 128, 129, 130, 131, 132, 133, 134, 135, 136, 137, 138, 139, 140, 141, 142, 143, 144, 145, 146, 147, 148, 149, 150, 151, 152, 153, 154, 155, 156, 157, 158, 159, 160, 161, 162, 163, 164],
      "AcquisitionTime": ["131823.887500", "131825.895000", "131827.902500", "131829.912500", "131831.920000", "131833.927500", "131835.935000", "131837.942500", "131839.952500", "131841.960000", "131843.967500", "131845.975000", "131847.985000", "131849.992500", "131852.000000", "131854.007500", "131856.015000", "131858.025000", "131900.032500", "131902.040000", "131904.047500", "131906.055000", "131908.065000", "131910.072500", "131912.080000", "131914.087500", "131916.095000", "131918.105000", "131920.112500", "131922.120000", "131924.127500", "131926.137500", "131928.145000", "131930.152500", "131932.160000", "131934.167500", "131936.177500", "131938.185000", "131940.192500", "131942.200000", "131944.207500", "131946.217500", "131948.225000", "131950.232500", "131952.240000", "131954.250000", "131956.257500", "131958.265000", "132000.272500", "132002.280000", "132004.290000", "132006.297500", "132008.305000", "132010.312500", "132012.320000", "132014.330000", "132016.337500", "132018.345000", "132020.352500", "132022.362500", "132024.370000", "132026.377500", "132028.385000", "132030.392500", "132032.402500", "132034.410000", "132036.417500", "132038.425000", "132040.432500", "132042.442500", "132044.450000", "132046.457500", "132048.465000", "132050.475000", "132052.482500", "132054.490000", "132056.497500", "132058.505000", "132100.515000", "132102.522500", "132104.530000", "132106.537500", "132108.545000", "132110.555000", "132112.562500", "132114.570000", "132116.577500", "132118.585000", "132120.595000", "132122.602500", "132124.610000", "132126.617500", "132128.627500", "132130.635000", "132132.642500", "132134.650000", "132136.657500", "132138.667500", "132140.675000", "132142.682500", "132144.690000", "132146.697500", "132148.707500", "132150.715000", "132152.722500", "132154.730000", "132156.740000", "132158.747500", "132200.755000", "132202.762500", "132204.770000", "132206.780000", "132208.787500", "132210.795000", "132212.802500", "132214.810000", "132216.820000", "132218.827500", "132220.835000", "132222.842500", "132224.852500", "132226.860000", "132228.867500", "132230.875000", "132232.882500", "132234.892500", "132236.900000", "132238.907500", "132240.915000", "132242.922500", "132244.932500", "132246.940000", "132248.947500", "132250.955000", "132252.962500", "132254.972500", "132256.980000", "132258.987500", "132300.995000", "132303.005000", "132305.012500", "132307.020000", "132309.027500", "132311.035000", "132313.045000", "132315.052500", "132317.060000", "132319.067500", "132321.075000", "132323.085000", "132325.092500", "132327.100000", "132329.107500", "132331.117500", "132333.125000", "132335.132500", "132337.140000", "132339.147500", "132341.157500", "132343.165000", "132345.172500", "132347.180000", "132349.187500", "132351.197500"],
      "ContentTime": ["131906.187000", "131906.203000", "131906.203000", "131906.203000", "131906.203000", "131906.218000", "131906.218000", "131906.218000", "131906.218000", "131906.218000", "131906.218000", "131906.218000", "131906.218000", "131906.234000", "131906.234000", "131906.234000", "131906.234000", "131906.234000", "131906.234000", "131906.234000", "131946.171000", "131946.187000", "131946.187000", "131946.187000", "131946.187000", "131946.187000", "131946.187000", "131946.187000", "131946.187000", "131946.203000", "131946.203000", "131946.203000", "131946.203000", "131946.203000", "131946.203000", "131946.203000", "131946.203000", "131946.218000", "131946.218000", "131946.218000", "132026.171000", "132026.187000", "132026.187000", "132026.187000", "132026.187000", "132026.187000", "132026.187000", "132026.187000", "132026.187000", "132026.203000", "132026.203000", "132026.203000", "132026.203000", "132026.203000", "132026.203000", "132026.203000", "132026.218000", "132026.218000", "132026.218000", "132026.218000", "132106.171000", "132106.171000", "132106.187000", "132106.187000", "132106.187000", "132106.187000", "132106.203000", "132106.203000", "132106.203000", "132106.203000", "132106.203000", "132106.203000", "132106.203000", "132106.203000", "132106.218000", "132106.218000", "132106.218000", "132106.218000", "132106.218000", "132106.218000", "132146.171000", "132146.187000", "132146.187000", "132146.203000", "132146.203000", "132146.203000", "132146.203000", "132146.203000", "132146.203000", "132146.218000", "132146.218000", "132146.234000", "132146.234000", "132146.234000", "132146.234000", "132146.234000", "132146.234000", "132146.250000", "132146.250000", "132146.250000", "132226.171000", "132226.187000", "132226.187000", "132226.187000", "132226.187000", "132226.187000", "132226.187000", "132226.187000", "132226.203000", "132226.203000", "132226.203000", "132226.203000", "132226.203000", "132226.203000", "132226.203000", "132226.218000", "132226.218000", "132226.218000", "132226.218000", "132226.218000", "132306.171000", "132306.187000", "132306.187000", "132306.187000", "132306.187000", "132306.187000", "132306.187000", "132306.187000", "132306.203000", "132306.203000", "132306.203000", "132306.203000", "132306.203000", "132306.218000", "132306.218000", "132306.218000", "132306.218000", "132306.218000", "132306.218000", "132306.218000", "132346.171000", "132346.187000", "132346.187000", "132346.187000", "132346.187000", "132346.187000", "132346.187000", "132346.187000", "132346.187000", "132346.203000", "132346.203000", "132346.203000", "132346.203000", "132346.203000", "132346.203000", "132346.203000", "132346.218000", "132346.218000", "132346.218000", "132346.218000", "132353.015000", "132353.015000", "132353.031000", "132353.031000"],
      "InstanceCreationTime": ["131906.187000", "131906.203000", "131906.203000", "131906.203000", "131906.203000", "131906.218000", "131906.218000", "131906.218000", "131906.218000", "131906.218000", "131906.218000", "131906.218000", "131906.218000", "131906.234000", "131906.234000", "131906.234000", "131906.234000", "131906.234000", "131906.234000", "131906.234000", "131946.171000", "131946.187000", "131946.187000", "131946.187000", "131946.187000", "131946.187000", "131946.187000", "131946.187000", "131946.187000", "131946.203000", "131946.203000", "131946.203000", "131946.203000", "131946.203000", "131946.203000", "131946.203000", "131946.203000", "131946.218000", "131946.218000", "131946.218000", "132026.171000", "132026.187000", "132026.187000", "132026.187000", "132026.187000", "132026.187000", "132026.187000", "132026.187000", "132026.187000", "132026.203000", "132026.203000", "132026.203000", "132026.203000", "132026.203000", "132026.203000", "132026.203000", "132026.218000", "132026.218000", "132026.218000", "132026.218000", "132106.171000", "132106.171000", "132106.187000", "132106.187000", "132106.187000", "132106.187000", "132106.203000", "132106.203000", "132106.203000", "132106.203000", "132106.203000", "132106.203000", "132106.203000", "132106.203000", "132106.218000", "132106.218000", "132106.218000", "132106.218000", "132106.218000", "132106.218000", "132146.171000", "132146.187000", "132146.187000", "132146.203000", "132146.203000", "132146.203000", "132146.203000", "132146.203000", "132146.203000", "132146.218000", "132146.218000", "132146.234000", "132146.234000", "132146.234000", "132146.234000", "132146.234000", "132146.234000", "132146.250000", "132146.250000", "132146.250000", "132226.171000", "132226.187000", "132226.187000", "132226.187000", "132226.187000", "132226.187000", "132226.187000", "132226.187000", "132226.203000", "132226.203000", "132226.203000", "132226.203000", "132226.203000", "132226.203000", "132226.203000", "132226.218000", "132226.218000", "132226.218000", "132226.218000", "132226.218000", "132306.171000", "132306.187000", "132306.187000", "132306.187000", "132306.187000", "132306.187000", "132306.187000", "132306.187000", "132306.203000", "132306.203000", "132306.203000", "132306.203000", "132306.203000", "132306.218000", "132306.218000", "132306.218000", "132306.218000", "132306.218000", "132306.218000", "132306.218000", "132346.171000", "132346.187000", "132346.187000", "132346.187000", "132346.187000", "132346.187000", "132346.187000", "132346.187000", "132346.187000", "132346.203000", "132346.203000", "132346.203000", "132346.203000", "132346.203000", "132346.203000", "132346.203000", "132346.218000", "132346.218000", "132346.218000", "132346.218000", "132353.015000", "132353.015000", "132353.031000", "132353.031000"],
      "InstanceNumber": [1, 2, 3, 4, 5, 6, 7, 8, 9, 10, 11, 12, 13, 14, 15, 16, 17, 18, 19, 20, 21, 22, 23, 24, 25, 26, 27, 28, 29, 30, 31, 32, 33, 34, 35, 36, 37, 38, 39, 40, 41, 42, 43, 44, 45, 46, 47, 48, 49, 50, 51, 52, 53, 54, 55, 56, 57, 58, 59, 60, 61, 62, 63, 64, 65, 66, 67, 68, 69, 70, 71, 72, 73, 74, 75, 76, 77, 78, 79, 80, 81, 82, 83, 84, 85, 86, 87, 88, 89, 90, 91, 92, 93, 94, 95, 96, 97, 98, 99, 100, 101, 102, 103, 104, 105, 106, 107, 108, 109, 110, 111, 112, 113, 114, 115, 116, 117, 118, 119, 120, 121, 122, 123, 124, 125, 126, 127, 128, 129, 130, 131, 132, 133, 134, 135, 136, 137, 138, 139, 140, 141, 142, 143, 144, 145, 146, 147, 148, 149, 150, 151, 152, 153, 154, 155, 156, 157, 158, 159, 160, 161, 162, 163, 164],
      "LargestImagePixelValue": [1879, 1822, 1803, 1775, 1763, 1780, 1760, 1761, 1755, 1768, 1757, 1773, 1744, 1730, 1749, 1771, 1745, 1755, 1761, 1768, 1755, 1765, 1766, 1749, 1745, 1717, 1739, 1749, 1757, 1764, 1761, 1752, 1757, 1744, 1745, 1767, 1744, 1755, 1789, 1781, 1748, 1743, 1759, 1757, 1749, 1751, 1753, 1772, 1778, 1778, 1767, 1766, 1761, 1747, 1748, 1767, 1769, 1758, 1757, 1755, 1745, 1750, 1758, 1767, 1766, 1774, 1741, 1749, 1756, 1783, 1777, 1752, 1766, 1759, 1783, 1757, 1774, 1757, 1772, 1773, 1768, 1756, 1767, 1783, 1753, 1768, 1787, 1779, 1753, 1767, 1769, 1753, 1747, 1771, 1771, 1766, 1752, 1748, 1769, 1772, 1803, 1738, 1758, 1786, 1761, 1766, 1754, 1754, 1781, 1771, 1756, 1765, 1783, 1785, 1772, 1760, 1758, 1773, 1742, 1779, 1752, 1769, 1775, 1785, 1777, 1790, 1764, 1771, 1761, 1762, 1769, 1772, 1765, 1771, 1773, 1734, 1774, 1765, 1746, 1765, 1762, 1752, 1758, 1750, 1771, 1769, 1755, 1752, 1764, 1758, 1751, 1764, 1776, 1760, 1758, 1757, 1753, 1773, 1769, 1757, 1753, 1751, 1750, 1778],
      "WindowCenter": [709.0, 706.0, 707.0, 705.0, 705.0, 704.0, 704.0, 703.0, 703.0, 704.0, 704.0, 703.0, 704.0, 704.0, 704.0, 704.0, 704.0, 704.0, 704.0, 704.0, 703.0, 703.0, 704.0, 704.0, 704.0, 703.0, 703.0, 703.0, 704.0, 703.0, 703.0, 703.0, 704.0, 703.0, 702.0, 703.0, 703.0, 704.0, 704.0, 704.0, 703.0, 702.0, 703.0, 703.0, 703.0, 702.0, 702.0, 703.0, 703.0, 704.0, 703.0, 704.0, 703.0, 703.0, 703.0, 704.0, 704.0, 704.0, 704.0, 703.0, 702.0, 703.0, 703.0, 703.0, 704.0, 704.0, 703.0, 704.0, 703.0, 703.0, 704.0, 703.0, 703.0, 702.0, 703.0, 704.0, 703.0, 703.0, 703.0, 703.0, 703.0, 703.0, 703.0, 703.0, 704.0, 703.0, 704.0, 703.0, 702.0, 703.0, 703.0, 702.0, 702.0, 703.0, 703.0, 703.0, 703.0, 703.0, 704.0, 703.0, 703.0, 702.0, 703.0, 703.0, 703.0, 703.0, 703.0, 703.0, 703.0, 703.0, 703.0, 703.0, 703.0, 703.0, 704.0, 704.0, 704.0, 703.0, 702.0, 703.0, 703.0, 704.0, 704.0, 704.0, 704.0, 703.0, 703.0, 703.0, 703.0, 703.0, 703.0, 703.0, 703.0, 702.0, 703.0, 702.0, 703.0, 702.0, 702.0, 703.0, 703.0, 703.0, 703.0, 703.0, 703.0, 702.0, 703.0, 703.0, 703.0, 703.0, 703.0, 703.0, 703.0, 703.0, 703.0, 703.0, 702.0, 703.0, 703.0, 703.0, 702.0, 702.0, 703.0, 703.0],
      "WindowWidth": [1541.0, 1532.0, 1535.0, 1531.0, 1528.0, 1525.0, 1525.0, 1524.0, 1524.0, 1527.0, 1526.0, 1525.0, 1527.0, 1527.0, 1526.0, 1526.0, 1525.0, 1525.0, 1526.0, 1526.0, 1524.0, 1525.0, 1526.0, 1526.0, 1526.0, 1524.0, 1524.0, 1525.0, 1527.0, 1525.0, 1524.0, 1524.0, 1527.0, 1525.0, 1522.0, 1523.0, 1525.0, 1527.0, 1527.0, 1527.0, 1523.0, 1522.0, 1524.0, 1524.0, 1524.0, 1522.0, 1522.0, 1525.0, 1525.0, 1526.0, 1524.0, 1526.0, 1525.0, 1523.0, 1524.0, 1527.0, 1527.0, 1526.0, 1526.0, 1524.0, 1522.0, 1524.0, 1523.0, 1525.0, 1526.0, 1525.0, 1525.0, 1525.0, 1524.0, 1524.0, 1526.0, 1524.0, 1523.0, 1522.0, 1524.0, 1526.0, 1525.0, 1525.0, 1523.0, 1525.0, 1524.0, 1524.0, 1524.0, 1525.0, 1526.0, 1525.0, 1526.0, 1524.0, 1522.0, 1525.0, 1523.0, 1522.0, 1522.0, 1523.0, 1525.0, 1523.0, 1524.0, 1525.0, 1525.0, 1524.0, 1523.0, 1521.0, 1523.0, 1524.0, 1524.0, 1524.0, 1523.0, 1524.0, 1523.0, 1525.0, 1525.0, 1524.0, 1524.0, 1525.0, 1526.0, 1527.0, 1526.0, 1523.0, 1522.0, 1522.0, 1524.0, 1525.0, 1527.0, 1526.0, 1527.0, 1525.0, 1524.0, 1524.0, 1524.0, 1523.0, 1524.0, 1524.0, 1523.0, 1522.0, 1524.0, 1522.0, 1522.0, 1522.0, 1522.0, 1523.0, 1522.0, 1523.0, 1524.0, 1524.0, 1524.0, 1522.0, 1524.0, 1525.0, 1525.0, 1524.0, 1523.0, 1525.0, 1525.0, 1524.0, 1523.0, 1523.0, 1522.0, 1525.0, 1524.0, 1523.0, 1522.0, 1522.0, 1523.0, 1524.0]
    },
    "slices": {}
  }
}