{
  "AcquisitionMatrixPE": 64,
  "AcquisitionNumber": 1,
  "AcquisitionTime": "12:33:12.452500",
  "BandwidthPerPixelPhaseEncode": 33.967,
  "BaseResolution": 64,
  "CoilCombinationMethod": "Sum of Squares",
  "CoilString": "C:HEA;HEP",
  "ConversionSoftware": "dcm2niix",
  "ConversionSoftwareVersion": "v1.0.20220720",
  "DerivedVendorReportedEchoSpacing": 0.000460005,
  "DeviceSerialNumber": "35193",
  "DwellTime": 3.1e-06,
  "EchoTime": 0.03,
  "EffectiveEchoSpacing": 0.000460005,
  "FlipAngle": 90,
  "HeudiconvVersion": "1.1.6",
  "ImageOrientationPatientDICOM": [1, 0, 0, 0, 1, 0],
  "ImageOrientationText": "Tra",
  "ImageType": [
    "ORIGINAL",
    "PRIMARY",
    "M",
    "ND",
    "MOSAIC"
],
  "ImagingFrequency": 123.254,
  "InPlanePhaseEncodingDirectionDICOM": "COL",
  "InstitutionAddress": "Xinjiekouwai Street No 19,Beijing,Haidian District,CN,100875",
  "InstitutionName": "Beijing Normal Universtiy/4C3F54/",
  "InstitutionalDepartmentName": "Department",
  "MRAcquisitionType": "2D",
  "MagneticFieldStrength": 3,
  "Manufacturer": "Siemens",
  "ManufacturersModelName": "TrioTim",
  "MatrixCoilMode": "SENSE",
  "Modality": "MR",
  "NonlinearGradientCorrection": false,
  "PartialFourier": 1,
  "PatientPosition": "HFS",
  "PercentPhaseFOV": 100,
  "PercentSampling": 100,
  "PhaseEncodingDirection": "j-",
  "PhaseEncodingSteps": 64,
  "PhaseResolution": 1,
  "PixelBandwidth": 2520,
  "ProcedureStepDescription": "BNU_cst_2015^Guo.TaoMei",
  "ProtocolName": "ge_func_3x3x4_164",
  "PulseSequenceDetails": "%SiemensSeq%\\ep2d_bold",
  "ReceiveCoilName": "HeadMatrix",
  "ReconMatrixPE": 64,
  "RepetitionTime": 2,
  "SAR": 0.145802,
  "ScanOptions": "FS",
  "ScanningSequence": "EP",
  "SequenceName": "*epfid2d1_64",
  "SequenceVariant": "SK",
  "SeriesDescription": "ge_func_3x3x4_164",
  "SeriesNumber": 5,
  "ShimSetting": [-4525, -19324, -9790, 1559, -205, 66, -437, -140],
  "SliceThickness": 4,
  "SliceTiming": [0, 1.0325, 0.06, 1.095, 0.12, 1.155, 0.1825, 1.215, 0.2425, 1.2775, 0.3025, 1.3375, 0.365, 1.3975, 0.425, 1.46, 0.485, 1.52, 0.5475, 1.58, 0.6075, 1.6425, 0.6675, 1.7025, 0.73, 1.7625, 0.79, 1.825, 0.85, 1.885, 0.9125, 1.945, 0.9725],
  "SoftwareVersions": "syngo MR B17",
  "SpacingBetweenSlices": 4.6,
  "StationName": "MRC35193",
  "TaskName": "LanguageControl",
  "TotalReadoutTime": 0.0289803,
  "TxRefAmp": 322.519,
  "dcmmeta_affine": [
    [-3.125, 0.0, 0.0, 109.44578552246094],
    [0.0, 3.125, 0.0, -86.7545166015625],
    [0.0, 0.0, 4.599999904632568, -60.10602569580078],
    [0.0, 0.0, 0.0, 1.0]
],
  "dcmmeta_reorient_transform": [
    [0.0, -1.0, 0.0, 63.0],
    [1.0, 0.0, 0.0, 0.0],
    [0.0, 0.0, 1.0, 0.0],
    [0.0, 0.0, 0.0, 1.0]
],
  "dcmmeta_shape": [64, 64, 33, 164],
  "dcmmeta_slice_dim": 2,
  "dcmmeta_version": 0.6,
  "global": {
    "const": {
      "AcquisitionMatrix": [64, 0, 0, 64],
      "AngioFlag": "N",
      "BitsAllocated": 16,
      "BitsStored": 12,
      "Columns": 384,
      "EchoNumbers": 1,
      "EchoTime": 30.0,
      "EchoTrainLength": 1,
      "FlipAngle": 90.0,
      "HighBit": 11,
      "ImageOrientationPatient": [1.0, 0.0, 0.0, 0.0, 1.0, 0.0],
      "ImagePositionPatient": [-609.44578266144, -610.12048149109, -60.106025695801],
      "ImageType": [
        "ORIGINAL",
        "PRIMARY",
        "M",
        "ND",
        "MOSAIC"
],
      "ImagedNucleus": "1H",
      "ImagingFrequency": 123.253708,
      "InPlanePhaseEncodingDirection": "COL",
      "MRAcquisitionType": "2D",
      "MagneticFieldStrength": 3.0,
      "Manufacturer": "SIEMENS",
      "ManufacturerModelName": "TrioTim",
      "Modality": "MR",
      "NumberOfAverages": 1.0,
      "NumberOfPhaseEncodingSteps": 64,
      "PercentPhaseFieldOfView": 100.0,
      "PercentSampling": 100.0,
      "PerformedProcedureStepStartTime": "120619.015000",
      "PhotometricInterpretation": "MONOCHROME2",
      "PixelBandwidth": 2520.0,
      "PixelRepresentation": 0,
      "PixelSpacing": [3.125, 3.125],
      "ProtocolName": "ge_func_3x3x4_164",
      "RepetitionTime": 2000.0,
      "Rows": 384,
      "SAR": 0.14580175728284,
      "SamplesPerPixel": 1,
      "ScanOptions": "FS",
      "ScanningSequence": "EP",
      "SequenceName": "*epfid2d1_64",
      "SequenceVariant": "SK",
      "SeriesDescription": "ge_func_3x3x4_164",
      "SeriesNumber": 5,
      "SeriesTime": "123401.078000",
      "SliceLocation": -60.106025695801,
      "SliceThickness": 4.0,
      "SmallestImagePixelValue": 0,
      "SoftwareVersions": "syngo MR B17",
      "SpacingBetweenSlices": 4.6000001430511,
      "SpecificCharacterSet": "ISO_IR 100",
      "StudyID": "1",
      "StudyTime": "120618.968000",
      "TransmitCoilName": "Body",
      "VariableFlipAngleFlag": "N",
      "WindowCenterWidthExplanation": "Algo1",
      "dBdt": 0.0},
    "slices": {}
  },
  "time": {
    "samples": {
      "AcquisitionNumber": [1, 2, 3, 4, 5, 6, 7, 8, 9, 10, 11, 12, 13, 14, 15, 16, 17, 18, 19, 20, 21, 22, 23, 24, 25, 26, 27, 28, 29, 30, 31, 32, 33, 34, 35, 36, 37, 38, 39, 40, 41, 42, 43, 44, 45, 46, 47, 48, 49, 50, 51, 52, 53, 54, 55, 56, 57, 58, 59, 60, 61, 62, 63, 64, 65, 66, 67, 68, 69, 70, 71, 72, 73, 74, 75, 76, 77, 78, 79, 80, 81, 82, 83, 84, 85, 86, 87, 88, 89, 90, 91, 92, 93, 94, 95, 96, 97, 98, 99, 100, 101, 102, 103, 104, 105, 106, 107, 108, 109, 110, 111, 112, 113, 114, 115, 116, 117, 118, 119, 120, 121, 122, 123, 124, 125, 126, 127, 128, 129, 130, 131, 132, 133, 134, 135, 136, 137, 138, 139, 140, 141, 142, 143, 144, 145, 146, 147, 148, 149, 150, 151, 152, 153, 154, 155, 156, 157, 158, 159, 160, 161, 162, 163, 164],
      "AcquisitionTime": ["123312.452500", "123314.460000", "123316.467500", "123318.475000", "123320.482500", "123322.492500", "123324.500000", "123326.507500", "123328.515000", "123330.525000", "123332.532500", "123334.540000", "123336.547500", "123338.555000", "123340.565000", "123342.572500", "123344.580000", "123346.587500", "123348.595000", "123350.605000", "123352.612500", "123354.620000", "123356.627500", "123358.637500", "123400.645000", "123402.652500", "123404.660000", "123406.667500", "123408.677500", "123410.685000", "123412.692500", "123414.700000", "123416.707500", "123418.717500", "123420.725000", "123422.732500", "123424.740000", "123426.750000", "123428.757500", "123430.765000", "123432.772500", "123434.780000", "123436.790000", "123438.797500", "123440.805000", "123442.812500", "123444.820000", "123446.830000", "123448.837500", "123450.845000", "123452.852500", "123454.860000", "123456.870000", "123458.877500", "123500.885000", "123502.892500", "123504.902500", "123506.910000", "123508.917500", "123510.925000", "123512.932500", "123514.942500", "123516.950000", "123518.957500", "123520.965000", "123522.972500", "123524.982500", "123526.990000", "123528.997500", "123531.005000", "123533.015000", "123535.022500", "123537.030000", "123539.037500", "123541.045000", "123543.055000", "123545.062500", "123547.070000", "123549.077500", "123551.085000", "123553.095000", "123555.102500", "123557.110000", "123559.117500", "123601.127500", "123603.135000", "123605.142500", "123607.150000", "123609.157500", "123611.167500", "123613.175000", "123615.182500", "123617.190000", "123619.197500", "123621.207500", "123623.215000", "123625.222500", "123627.230000", "123629.237500", "123631.247500", "123633.255000", "123635.262500", "123637.270000", "123639.280000", "123641.287500", "123643.295000", "123645.302500", "123647.310000", "123649.320000", "123651.327500", "123653.335000", "123655.342500", "123657.350000", "123659.360000", "123701.367500", "123703.375000", "123705.382500", "123707.392500", "123709.400000", "123711.407500", "123713.415000", "123715.422500", "123717.432500", "123719.440000", "123721.447500", "123723.455000", "123725.462500", "123727.472500", "123729.480000", "123731.487500", "123733.495000", "123735.505000", "123737.512500", "123739.520000", "123741.527500", "123743.535000", "123745.545000", "123747.552500", "123749.560000", "123751.567500", "123753.575000", "123755.585000", "123757.592500", "123759.600000", "123801.607500", "123803.615000", "123805.625000", "123807.632500", "123809.640000", "123811.647500", "123813.657500", "123815.665000", "123817.672500", "123819.680000", "123821.687500", "123823.697500", "123825.705000", "123827.712500", "123829.720000", "123831.727500", "123833.737500", "123835.745000", "123837.752500", "123839.760000"],
      "ContentTime": ["123401.078000", "123401.078000", "123401.078000", "123401.078000", "123401.078000", "123401.093000", "123401.093000", "123401.109000", "123401.109000", "123401.109000", "123401.109000", "123401.109000", "123401.109000", "123401.109000", "123401.125000", "123401.125000", "123401.125000", "123401.125000", "123401.125000", "123401.140000", "123401.140000", "123401.140000", "123401.140000", "123401.140000", "123441.062000", "123441.078000", "123441.078000", "123441.078000", "123441.078000", "123441.078000", "123441.078000", "123441.078000", "123441.078000", "123441.093000", "123441.093000", "123441.093000", "123441.093000", "123441.093000", "123441.093000", "123441.093000", "123441.093000", "123441.109000", "123441.109000", "123441.109000", "123521.062000", "123521.078000", "123521.078000", "123521.078000", "123521.078000", "123521.078000", "123521.078000", "123521.093000", "123521.093000", "123521.093000", "123521.093000", "123521.093000", "123521.093000", "123521.109000", "123521.109000", "123521.109000", "123521.109000", "123521.109000", "123521.125000", "123521.125000", "123601.062000", "123601.078000", "123601.078000", "123601.078000", "123601.093000", "123601.093000", "123601.093000", "123601.093000", "123601.109000", "123601.109000", "123601.109000", "123601.109000", "123601.109000", "123601.109000", "123601.109000", "123601.109000", "123601.125000", "123601.125000", "123601.125000", "123601.125000", "123641.062000", "123641.078000", "123641.078000", "123641.078000", "123641.078000", "123641.078000", "123641.093000", "123641.093000", "123641.093000", "123641.093000", "123641.093000", "123641.093000", "123641.109000", "123641.109000", "123641.109000", "123641.109000", "123641.109000", "123641.109000", "123641.125000", "123641.125000", "123721.062000", "123721.078000", "123721.078000", "123721.078000", "123721.078000", "123721.078000", "123721.093000", "123721.093000", "123721.093000", "123721.093000", "123721.093000", "123721.109000", "123721.109000", "123721.109000", "123721.109000", "123721.109000", "123721.109000", "123721.109000", "123721.109000", "123721.125000", "123801.062000", "123801.078000", "123801.078000", "123801.078000", "123801.078000", "123801.093000", "123801.093000", "123801.093000", "123801.093000", "123801.109000", "123801.109000", "123801.109000", "123801.109000", "123801.109000", "123801.109000", "123801.109000", "123801.109000", "123801.125000", "123801.125000", "123801.125000", "123840.703000", "123840.703000", "123840.703000", "123840.703000", "123840.703000", "123840.703000", "123840.703000", "123840.703000", "123840.718000", "123840.718000", "123840.718000", "123840.718000", "123840.718000", "123840.718000", "123840.718000", "123840.734000", "123840.734000", "123840.734000", "123840.734000", "123840.734000"],
      "InstanceCreationTime": ["123401.078000", "123401.078000", "123401.078000", "123401.078000", "123401.078000", "123401.093000", "123401.093000", "123401.109000", "123401.109000", "123401.109000", "123401.109000", "123401.109000", "123401.109000", "123401.109000", "123401.125000", "123401.125000", "123401.125000", "123401.125000", "123401.125000", "123401.140000", "123401.140000", "123401.140000", "123401.140000", "123401.140000", "123441.062000", "123441.078000", "123441.078000", "123441.078000", "123441.078000", "123441.078000", "123441.078000", "123441.078000", "123441.078000", "123441.093000", "123441.093000", "123441.093000", "123441.093000", "123441.093000", "123441.093000", "123441.093000", "123441.093000", "123441.109000", "123441.109000", "123441.109000", "123521.062000", "123521.078000", "123521.078000", "123521.078000", "123521.078000", "123521.078000", "123521.078000", "123521.093000", "123521.093000", "123521.093000", "123521.093000", "123521.093000", "123521.093000", "123521.109000", "123521.109000", "123521.109000", "123521.109000", "123521.109000", "123521.125000", "123521.125000", "123601.062000", "123601.078000", "123601.078000", "123601.078000", "123601.093000", "123601.093000", "123601.093000", "123601.093000", "123601.109000", "123601.109000", "123601.109000", "123601.109000", "123601.109000", "123601.109000", "123601.109000", "123601.109000", "123601.125000", "123601.125000", "123601.125000", "123601.125000", "123641.062000", "123641.078000", "123641.078000", "123641.078000", "123641.078000", "123641.078000", "123641.093000", "123641.093000", "123641.093000", "123641.093000", "123641.093000", "123641.093000", "123641.109000", "123641.109000", "123641.109000", "123641.109000", "123641.109000", "123641.109000", "123641.125000", "123641.125000", "123721.062000", "123721.078000", "123721.078000", "123721.078000", "123721.078000", "123721.078000", "123721.093000", "123721.093000", "123721.093000", "123721.093000", "123721.093000", "123721.109000", "123721.109000", "123721.109000", "123721.109000", "123721.109000", "123721.109000", "123721.109000", "123721.109000", "123721.125000", "123801.062000", "123801.078000", "123801.078000", "123801.078000", "123801.078000", "123801.093000", "123801.093000", "123801.093000", "123801.093000", "123801.109000", "123801.109000", "123801.109000", "123801.109000", "123801.109000", "123801.109000", "123801.109000", "123801.109000", "123801.125000", "123801.125000", "123801.125000", "123840.703000", "123840.703000", "123840.703000", "123840.703000", "123840.703000", "123840.703000", "123840.703000", "123840.703000", "123840.718000", "123840.718000", "123840.718000", "123840.718000", "123840.718000", "123840.718000", "123840.718000", "123840.734000", "123840.734000", "123840.734000", "123840.734000", "123840.734000"],
      "InstanceNumber": [1, 2, 3, 4, 5, 6, 7, 8, 9, 10, 11, 12, 13, 14, 15, 16, 17, 18, 19, 20, 21, 22, 23, 24, 25, 26, 27, 28, 29, 30, 31, 32, 33, 34, 35, 36, 37, 38, 39, 40, 41, 42, 43, 44, 45, 46, 47, 48, 49, 50, 51, 52, 53, 54, 55, 56, 57, 58, 59, 60, 61, 62, 63, 64, 65, 66, 67, 68, 69, 70, 71, 72, 73, 74, 75, 76, 77, 78, 79, 80, 81, 82, 83, 84, 85, 86, 87, 88, 89, 90, 91, 92, 93, 94, 95, 96, 97, 98, 99, 100, 101, 102, 103, 104, 105, 106, 107, 108, 109, 110, 111, 112, 113, 114, 115, 116, 117, 118, 119, 120, 121, 122, 123, 124, 125, 126, 127, 128, 129, 130, 131, 132, 133, 134, 135, 136, 137, 138, 139, 140, 141, 142, 143, 144, 145, 146, 147, 148, 149, 150, 151, 152, 153, 154, 155, 156, 157, 158, 159, 160, 161, 162, 163, 164],
      "LargestImagePixelValue": [2059, 1995, 1963, 1976, 1955, 1935, 1952, 1957, 1956, 1950, 1955, 1956, 1928, 1934, 1958, 1951, 1947, 1960, 1968, 1962, 1969, 1970, 1953, 1961, 1951, 1946, 1935, 1956, 1953, 1938, 1942, 1933, 1950, 1953, 1945, 1957, 1959, 1957, 1947, 1946, 1958, 1973, 1975, 1951, 1959, 1953, 1965, 1975, 1965, 1965, 1962, 1958, 1961, 1975, 1970, 1960, 1949, 1957, 1966, 1981, 1986, 1970, 1976, 1939, 1959, 1968, 1954, 1956, 1948, 1961, 1950, 1970, 1952, 1957, 1956, 1967, 1978, 1960, 1971, 1953, 1962, 1954, 1956, 1962, 1953, 1983, 1956, 1961, 1956, 1960, 1959, 1954, 1957, 1958, 1948, 1960, 1958, 1962, 1967, 1955, 1957, 1954, 1969, 1970, 1987, 1946, 1966, 1967, 1970, 1967, 1967, 1966, 1960, 1957, 1940, 1962, 1956, 1961, 1965, 1951, 1965, 1949, 1979, 1963, 1964, 1966, 1956, 1960, 1961, 1969, 1964, 1959, 1965, 1972, 1972, 1976, 1982, 1965, 1944, 1949, 1961, 1936, 1959, 1969, 1965, 1944, 1932, 1970, 1954, 1962, 1958, 1971, 1962, 1958, 1967, 1968, 1947, 1957, 1974, 1960, 1951, 1973, 1947, 1971],
      "WindowCenter": [737.0, 735.0, 734.0, 734.0, 734.0, 734.0, 733.0, 733.0, 734.0, 734.0, 733.0, 733.0, 733.0, 733.0, 733.0, 733.0, 733.0, 733.0, 733.0, 733.0, 733.0, 733.0, 733.0, 733.0, 733.0, 734.0, 734.0, 735.0, 735.0, 734.0, 734.0, 734.0, 735.0, 735.0, 735.0, 734.0, 734.0, 734.0, 734.0, 734.0, 734.0, 734.0, 734.0, 734.0, 735.0, 734.0, 734.0, 734.0, 734.0, 734.0, 734.0, 733.0, 733.0, 733.0, 733.0, 733.0, 734.0, 734.0, 734.0, 734.0, 734.0, 734.0, 734.0, 733.0, 734.0, 734.0, 734.0, 734.0, 734.0, 734.0, 734.0, 734.0, 734.0, 735.0, 735.0, 734.0, 735.0, 735.0, 734.0, 734.0, 734.0, 734.0, 734.0, 734.0, 734.0, 734.0, 734.0, 734.0, 735.0, 735.0, 735.0, 734.0, 734.0, 733.0, 734.0, 735.0, 735.0, 734.0, 733.0, 733.0, 733.0, 734.0, 734.0, 734.0, 733.0, 734.0, 734.0, 733.0, 733.0, 733.0, 734.0, 733.0, 733.0, 734.0, 735.0, 734.0, 733.0, 734.0, 734.0, 734.0, 734.0, 734.0, 735.0, 734.0, 734.0, 734.0, 734.0, 734.0, 735.0, 735.0, 736.0, 735.0, 735.0, 734.0, 734.0, 734.0, 734.0, 734.0, 734.0, 734.0, 733.0, 733.0, 734.0, 734.0, 734.0, 735.0, 735.0, 735.0, 735.0, 735.0, 735.0, 735.0, 736.0, 735.0, 735.0, 734.0, 735.0, 735.0, 735.0, 735.0, 734.0, 735.0, 736.0, 736.0],
      "WindowWidth": [1616.0, 1608.0, 1606.0, 1607.0, 1607.0, 1606.0, 1603.0, 1605.0, 1605.0, 1605.0, 1603.0, 1603.0, 1604.0, 1603.0, 1603.0, 1602.0, 1602.0, 1602.0, 1604.0, 1602.0, 1602.0, 1602.0, 1602.0, 1603.0, 1604.0, 1607.0, 1607.0, 1609.0, 1608.0, 1607.0, 1605.0, 1607.0, 1609.0, 1609.0, 1608.0, 1606.0, 1607.0, 1606.0, 1608.0, 1607.0, 1607.0, 1607.0, 1606.0, 1607.0, 1610.0, 1607.0, 1607.0, 1606.0, 1606.0, 1605.0, 1605.0, 1603.0, 1603.0, 1604.0, 1602.0, 1604.0, 1607.0, 1606.0, 1605.0, 1605.0, 1605.0, 1606.0, 1606.0, 1604.0, 1606.0, 1606.0, 1605.0, 1606.0, 1607.0, 1606.0, 1606.0, 1606.0, 1607.0, 1609.0, 1607.0, 1606.0, 1608.0, 1608.0, 1607.0, 1606.0, 1605.0, 1605.0, 1606.0, 1607.0, 1606.0, 1606.0, 1605.0, 1606.0, 1609.0, 1610.0, 1608.0, 1607.0, 1606.0, 1604.0, 1605.0, 1608.0, 1608.0, 1605.0, 1604.0, 1603.0, 1604.0, 1605.0, 1605.0, 1606.0, 1604.0, 1606.0, 1606.0, 1603.0, 1603.0, 1604.0, 1605.0, 1604.0, 1604.0, 1606.0, 1607.0, 1607.0, 1604.0, 1606.0, 1606.0, 1606.0, 1605.0, 1606.0, 1607.0, 1607.0, 1605.0, 1607.0, 1606.0, 1606.0, 1608.0, 1609.0, 1610.0, 1609.0, 1607.0, 1606.0, 1606.0, 1606.0, 1606.0, 1607.0, 1607.0, 1604.0, 1603.0, 1603.0, 1605.0, 1607.0, 1606.0, 1608.0, 1609.0, 1609.0, 1607.0, 1608.0, 1608.0, 1609.0, 1611.0, 1610.0, 1608.0, 1606.0, 1608.0, 1609.0, 1607.0, 1608.0, 1605.0, 1609.0, 1611.0, 1611.0]
    },
    "slices": {}
  }
}