{
  "AcquisitionMatrixPE": 64,
  "AcquisitionNumber": 1,
  "AcquisitionTime": "12:20:5.437500",
  "BandwidthPerPixelPhaseEncode": 33.967,
  "BaseResolution": 64,
  "CoilCombinationMethod": "Sum of Squares",
  "CoilString": "C:HEA;HEP",
  "ConversionSoftware": "dcm2niix",
  "ConversionSoftwareVersion": "v1.0.20220720",
  "DerivedVendorReportedEchoSpacing": 0.000460005,
  "DeviceSerialNumber": "35193",
  "DwellTime": 3.1e-06,
  "EchoTime": 0.03,
  "EffectiveEchoSpacing": 0.000460005,
  "FlipAngle": 90,
  "HeudiconvVersion": "1.1.6",
  "ImageOrientationPatientDICOM": [1, 0, 0, 0, 1, 0],
  "ImageOrientationText": "Tra",
  "ImageType": [
    "ORIGINAL",
    "PRIMARY",
    "M",
    "ND",
    "MOSAIC"
],
  "ImagingFrequency": 123.254,
  "InPlanePhaseEncodingDirectionDICOM": "COL",
  "InstitutionAddress": "Xinjiekouwai Street No 19,Beijing,Haidian District,CN,100875",
  "InstitutionName": "Beijing Normal Universtiy/4C3F54/",
  "InstitutionalDepartmentName": "Department",
  "MRAcquisitionType": "2D",
  "MagneticFieldStrength": 3,
  "Manufacturer": "Siemens",
  "ManufacturersModelName": "TrioTim",
  "MatrixCoilMode": "SENSE",
  "Modality": "MR",
  "NonlinearGradientCorrection": false,
  "PartialFourier": 1,
  "PatientPosition": "HFS",
  "PercentPhaseFOV": 100,
  "PercentSampling": 100,
  "PhaseEncodingDirection": "j-",
  "PhaseEncodingSteps": 64,
  "PhaseResolution": 1,
  "PixelBandwidth": 2520,
  "ProcedureStepDescription": "BNU_cst_2015^Guo.TaoMei",
  "ProtocolName": "ge_func_3x3x4_164",
  "PulseSequenceDetails": "%SiemensSeq%\\ep2d_bold",
  "ReceiveCoilName": "HeadMatrix",
  "ReconMatrixPE": 64,
  "RepetitionTime": 2,
  "SAR": 0.145802,
  "ScanOptions": "FS",
  "ScanningSequence": "EP",
  "SequenceName": "*epfid2d1_64",
  "SequenceVariant": "SK",
  "SeriesDescription": "ge_func_3x3x4_164",
  "SeriesNumber": 3,
  "ShimSetting": [-4525, -19324, -9790, 1559, -205, 66, -437, -140],
  "SliceThickness": 4,
  "SliceTiming": [0, 1.035, 0.06, 1.095, 0.1225, 1.155, 0.1825, 1.2175, 0.2425, 1.2775, 0.305, 1.3375, 0.365, 1.4, 0.425, 1.46, 0.4875, 1.52, 0.5475, 1.5825, 0.6075, 1.6425, 0.67, 1.7025, 0.73, 1.765, 0.79, 1.825, 0.8525, 1.885, 0.9125, 1.9475, 0.9725],
  "SoftwareVersions": "syngo MR B17",
  "SpacingBetweenSlices": 4.6,
  "StationName": "MRC35193",
  "TaskName": "CognitiveControl",
  "TotalReadoutTime": 0.0289803,
  "TxRefAmp": 322.519,
  "dcmmeta_affine": [
    [-3.125, 0.0, 0.0, 109.44578552246094],
    [0.0, 3.125, 0.0, -86.7545166015625],
    [0.0, 0.0, 4.599999904632568, -60.10602569580078],
    [0.0, 0.0, 0.0, 1.0]
],
  "dcmmeta_reorient_transform": [
    [0.0, -1.0, 0.0, 63.0],
    [1.0, 0.0, 0.0, 0.0],
    [0.0, 0.0, 1.0, 0.0],
    [0.0, 0.0, 0.0, 1.0]
],
  "dcmmeta_shape": [64, 64, 33, 164],
  "dcmmeta_slice_dim": 2,
  "dcmmeta_version": 0.6,
  "global": {
    "const": {
      "AcquisitionMatrix": [64, 0, 0, 64],
      "AngioFlag": "N",
      "BitsAllocated": 16,
      "BitsStored": 12,
      "Columns": 384,
      "EchoNumbers": 1,
      "EchoTime": 30.0,
      "EchoTrainLength": 1,
      "FlipAngle": 90.0,
      "HighBit": 11,
      "ImageOrientationPatient": [1.0, 0.0, 0.0, 0.0, 1.0, 0.0],
      "ImagePositionPatient": [-609.44578266144, -610.12048149109, -60.106025695801],
      "ImageType": [
        "ORIGINAL",
        "PRIMARY",
        "M",
        "ND",
        "MOSAIC"
],
      "ImagedNucleus": "1H",
      "ImagingFrequency": 123.253703,
      "InPlanePhaseEncodingDirection": "COL",
      "MRAcquisitionType": "2D",
      "MagneticFieldStrength": 3.0,
      "Manufacturer": "SIEMENS",
      "ManufacturerModelName": "TrioTim",
      "Modality": "MR",
      "NumberOfAverages": 1.0,
      "NumberOfPhaseEncodingSteps": 64,
      "PercentPhaseFieldOfView": 100.0,
      "PercentSampling": 100.0,
      "PerformedProcedureStepStartTime": "120619.015000",
      "PhotometricInterpretation": "MONOCHROME2",
      "PixelBandwidth": 2520.0,
      "PixelRepresentation": 0,
      "PixelSpacing": [3.125, 3.125],
      "ProtocolName": "ge_func_3x3x4_164",
      "RepetitionTime": 2000.0,
      "Rows": 384,
      "SAR": 0.14580175728284,
      "SamplesPerPixel": 1,
      "ScanOptions": "FS",
      "ScanningSequence": "EP",
      "SequenceName": "*epfid2d1_64",
      "SequenceVariant": "SK",
      "SeriesDescription": "ge_func_3x3x4_164",
      "SeriesNumber": 3,
      "SeriesTime": "122052.468000",
      "SliceLocation": -60.106025695801,
      "SliceThickness": 4.0,
      "SmallestImagePixelValue": 0,
      "SoftwareVersions": "syngo MR B17",
      "SpacingBetweenSlices": 4.6000001430511,
      "SpecificCharacterSet": "ISO_IR 100",
      "StudyID": "1",
      "StudyTime": "120618.968000",
      "TransmitCoilName": "Body",
      "VariableFlipAngleFlag": "N",
      "WindowCenterWidthExplanation": "Algo1",
      "dBdt": 0.0},
    "slices": {}
  },
  "time": {
    "samples": {
      "AcquisitionNumber": [1, 2, 3, 4, 5, 6, 7, 8, 9, 10, 11, 12, 13, 14, 15, 16, 17, 18, 19, 20, 21, 22, 23, 24, 25, 26, 27, 28, 29, 30, 31, 32, 33, 34, 35, 36, 37, 38, 39, 40, 41, 42, 43, 44, 45, 46, 47, 48, 49, 50, 51, 52, 53, 54, 55, 56, 57, 58, 59, 60, 61, 62, 63, 64, 65, 66, 67, 68, 69, 70, 71, 72, 73, 74, 75, 76, 77, 78, 79, 80, 81, 82, 83, 84, 85, 86, 87, 88, 89, 90, 91, 92, 93, 94, 95, 96, 97, 98, 99, 100, 101, 102, 103, 104, 105, 106, 107, 108, 109, 110, 111, 112, 113, 114, 115, 116, 117, 118, 119, 120, 121, 122, 123, 124, 125, 126, 127, 128, 129, 130, 131, 132, 133, 134, 135, 136, 137, 138, 139, 140, 141, 142, 143, 144, 145, 146, 147, 148, 149, 150, 151, 152, 153, 154, 155, 156, 157, 158, 159, 160, 161, 162, 163, 164],
      "AcquisitionTime": ["122005.437500", "122007.445000", "122009.452500", "122011.462500", "122013.470000", "122015.477500", "122017.485000", "122019.495000", "122021.502500", "122023.510000", "122025.517500", "122027.525000", "122029.535000", "122031.542500", "122033.550000", "122035.557500", "122037.565000", "122039.575000", "122041.582500", "122043.590000", "122045.597500", "122047.605000", "122049.615000", "122051.622500", "122053.630000", "122055.637500", "122057.647500", "122059.655000", "122101.662500", "122103.670000", "122105.677500", "122107.687500", "122109.695000", "122111.702500", "122113.710000", "122115.717500", "122117.727500", "122119.735000", "122121.742500", "122123.750000", "122125.760000", "122127.767500", "122129.775000", "122131.782500", "122133.790000", "122135.800000", "122137.807500", "122139.815000", "122141.822500", "122143.830000", "122145.840000", "122147.847500", "122149.855000", "122151.862500", "122153.872500", "122155.880000", "122157.887500", "122159.895000", "122201.902500", "122203.912500", "122205.920000", "122207.927500", "122209.935000", "122211.942500", "122213.952500", "122215.960000", "122217.967500", "122219.975000", "122221.982500", "122223.992500", "122226.000000", "122228.007500", "122230.015000", "122232.025000", "122234.032500", "122236.040000", "122238.047500", "122240.055000", "122242.065000", "122244.072500", "122246.080000", "122248.087500", "122250.095000", "122252.105000", "122254.112500", "122256.120000", "122258.127500", "122300.137500", "122302.145000", "122304.152500", "122306.160000", "122308.167500", "122310.177500", "122312.185000", "122314.192500", "122316.200000", "122318.207500", "122320.217500", "122322.225000", "122324.232500", "122326.240000", "122328.250000", "122330.257500", "122332.265000", "122334.272500", "122336.280000", "122338.290000", "122340.297500", "122342.305000", "122344.312500", "122346.320000", "122348.330000", "122350.337500", "122352.345000", "122354.352500", "122356.362500", "122358.370000", "122400.377500", "122402.385000", "122404.392500", "122406.402500", "122408.410000", "122410.417500", "122412.425000", "122414.432500", "122416.442500", "122418.450000", "122420.457500", "122422.465000", "122424.472500", "122426.482500", "122428.490000", "122430.497500", "122432.505000", "122434.515000", "122436.522500", "122438.530000", "122440.537500", "122442.545000", "122444.555000", "122446.562500", "122448.570000", "122450.577500", "122452.585000", "122454.595000", "122456.602500", "122458.610000", "122500.617500", "122502.627500", "122504.635000", "122506.642500", "122508.650000", "122510.657500", "122512.667500", "122514.675000", "122516.682500", "122518.690000", "122520.697500", "122522.707500", "122524.715000", "122526.722500", "122528.730000", "122530.740000", "122532.747500"],
      "ContentTime": ["122052.468000", "122052.468000", "122052.468000", "122052.468000", "122052.468000", "122052.500000", "122052.500000", "122052.500000", "122052.500000", "122052.500000", "122052.500000", "122052.500000", "122052.515000", "122052.515000", "122052.515000", "122052.515000", "122052.515000", "122052.515000", "122052.515000", "122052.515000", "122052.531000", "122052.531000", "122052.531000", "122132.453000", "122132.468000", "122132.468000", "122132.468000", "122132.468000", "122132.468000", "122132.468000", "122132.468000", "122132.484000", "122132.484000", "122132.484000", "122132.484000", "122132.484000", "122132.484000", "122132.484000", "122132.484000", "122132.500000", "122132.500000", "122132.500000", "122132.500000", "122212.453000", "122212.468000", "122212.468000", "122212.468000", "122212.468000", "122212.468000", "122212.484000", "122212.484000", "122212.484000", "122212.500000", "122212.500000", "122212.500000", "122212.500000", "122212.500000", "122212.500000", "122212.500000", "122212.515000", "122212.515000", "122212.515000", "122212.515000", "122252.453000", "122252.468000", "122252.468000", "122252.484000", "122252.484000", "122252.484000", "122252.484000", "122252.484000", "122252.484000", "122252.484000", "122252.484000", "122252.500000", "122252.500000", "122252.500000", "122252.500000", "122252.500000", "122252.500000", "122252.500000", "122252.500000", "122252.515000", "122332.453000", "122332.468000", "122332.468000", "122332.468000", "122332.468000", "122332.484000", "122332.484000", "122332.484000", "122332.484000", "122332.484000", "122332.484000", "122332.500000", "122332.500000", "122332.500000", "122332.500000", "122332.515000", "122332.515000", "122332.515000", "122332.515000", "122332.515000", "122412.453000", "122412.468000", "122412.468000", "122412.468000", "122412.468000", "122412.468000", "122412.468000", "122412.468000", "122412.484000", "122412.484000", "122412.484000", "122412.484000", "122412.484000", "122412.484000", "122412.484000", "122412.484000", "122412.500000", "122412.500000", "122412.500000", "122412.500000", "122452.453000", "122452.468000", "122452.468000", "122452.468000", "122452.468000", "122452.468000", "122452.484000", "122452.484000", "122452.484000", "122452.484000", "122452.484000", "122452.484000", "122452.484000", "122452.500000", "122452.500000", "122452.500000", "122452.500000", "122452.500000", "122452.500000", "122452.500000", "122532.453000", "122532.468000", "122532.468000", "122532.468000", "122532.468000", "122532.468000", "122532.468000", "122532.468000", "122532.484000", "122532.484000", "122532.484000", "122532.484000", "122532.484000", "122532.484000", "122532.500000", "122532.500000", "122532.500000", "122532.500000", "122532.500000", "122532.500000", "122534.031000"],
      "InstanceCreationTime": ["122052.468000", "122052.468000", "122052.468000", "122052.468000", "122052.468000", "122052.500000", "122052.500000", "122052.500000", "122052.500000", "122052.500000", "122052.500000", "122052.500000", "122052.515000", "122052.515000", "122052.515000", "122052.515000", "122052.515000", "122052.515000", "122052.515000", "122052.515000", "122052.531000", "122052.531000", "122052.531000", "122132.453000", "122132.468000", "122132.468000", "122132.468000", "122132.468000", "122132.468000", "122132.468000", "122132.468000", "122132.484000", "122132.484000", "122132.484000", "122132.484000", "122132.484000", "122132.484000", "122132.484000", "122132.484000", "122132.500000", "122132.500000", "122132.500000", "122132.500000", "122212.453000", "122212.468000", "122212.468000", "122212.468000", "122212.468000", "122212.468000", "122212.484000", "122212.484000", "122212.484000", "122212.500000", "122212.500000", "122212.500000", "122212.500000", "122212.500000", "122212.500000", "122212.500000", "122212.515000", "122212.515000", "122212.515000", "122212.515000", "122252.453000", "122252.468000", "122252.468000", "122252.484000", "122252.484000", "122252.484000", "122252.484000", "122252.484000", "122252.484000", "122252.484000", "122252.484000", "122252.500000", "122252.500000", "122252.500000", "122252.500000", "122252.500000", "122252.500000", "122252.500000", "122252.500000", "122252.515000", "122332.453000", "122332.468000", "122332.468000", "122332.468000", "122332.468000", "122332.484000", "122332.484000", "122332.484000", "122332.484000", "122332.484000", "122332.484000", "122332.500000", "122332.500000", "122332.500000", "122332.500000", "122332.515000", "122332.515000", "122332.515000", "122332.515000", "122332.515000", "122412.453000", "122412.468000", "122412.468000", "122412.468000", "122412.468000", "122412.468000", "122412.468000", "122412.468000", "122412.484000", "122412.484000", "122412.484000", "122412.484000", "122412.484000", "122412.484000", "122412.484000", "122412.484000", "122412.500000", "122412.500000", "122412.500000", "122412.500000", "122452.453000", "122452.468000", "122452.468000", "122452.468000", "122452.468000", "122452.468000", "122452.484000", "122452.484000", "122452.484000", "122452.484000", "122452.484000", "122452.484000", "122452.484000", "122452.500000", "122452.500000", "122452.500000", "122452.500000", "122452.500000", "122452.500000", "122452.500000", "122532.453000", "122532.468000", "122532.468000", "122532.468000", "122532.468000", "122532.468000", "122532.468000", "122532.468000", "122532.484000", "122532.484000", "122532.484000", "122532.484000", "122532.484000", "122532.484000", "122532.500000", "122532.500000", "122532.500000", "122532.500000", "122532.500000", "122532.500000", "122534.031000"],
      "InstanceNumber": [1, 2, 3, 4, 5, 6, 7, 8, 9, 10, 11, 12, 13, 14, 15, 16, 17, 18, 19, 20, 21, 22, 23, 24, 25, 26, 27, 28, 29, 30, 31, 32, 33, 34, 35, 36, 37, 38, 39, 40, 41, 42, 43, 44, 45, 46, 47, 48, 49, 50, 51, 52, 53, 54, 55, 56, 57, 58, 59, 60, 61, 62, 63, 64, 65, 66, 67, 68, 69, 70, 71, 72, 73, 74, 75, 76, 77, 78, 79, 80, 81, 82, 83, 84, 85, 86, 87, 88, 89, 90, 91, 92, 93, 94, 95, 96, 97, 98, 99, 100, 101, 102, 103, 104, 105, 106, 107, 108, 109, 110, 111, 112, 113, 114, 115, 116, 117, 118, 119, 120, 121, 122, 123, 124, 125, 126, 127, 128, 129, 130, 131, 132, 133, 134, 135, 136, 137, 138, 139, 140, 141, 142, 143, 144, 145, 146, 147, 148, 149, 150, 151, 152, 153, 154, 155, 156, 157, 158, 159, 160, 161, 162, 163, 164],
      "LargestImagePixelValue": [1954, 1867, 1858, 1853, 1851, 1848, 1856, 1844, 1857, 1858, 1847, 1854, 1864, 1835, 1856, 1841, 1850, 1841, 1857, 1850, 1854, 1856, 1860, 1847, 1865, 1841, 1861, 1841, 1868, 1827, 1867, 1864, 1842, 1839, 1854, 1847, 1844, 1849, 1864, 1859, 1867, 1865, 1862, 1834, 1866, 1853, 1849, 1848, 1861, 1854, 1858, 1849, 1878, 1866, 1870, 1885, 1863, 1867, 1864, 1863, 1860, 1862, 1869, 1861, 1880, 1855, 1862, 1866, 1876, 1860, 1860, 1864, 1865, 1881, 1878, 1862, 1873, 1862, 1872, 1860, 1872, 1859, 1877, 1867, 1885, 1850, 1881, 1882, 1878, 1875, 1866, 1874, 1863, 1864, 1861, 1864, 1890, 1871, 1884, 1879, 1889, 1873, 1859, 1878, 1858, 1882, 1874, 1878, 1864, 1876, 1877, 1881, 1879, 1877, 1877, 1874, 1901, 1876, 1870, 1873, 1899, 1875, 1874, 1878, 1873, 1881, 1881, 1878, 1893, 1884, 1899, 1890, 1884, 1847, 1881, 1898, 1891, 1892, 1908, 1892, 1909, 1897, 1885, 1891, 1901, 1894, 1867, 1859, 1887, 1879, 1883, 1895, 1884, 1887, 1868, 1878, 1867, 1887, 1868, 1891, 1882, 1871, 1875, 1888],
      "WindowCenter": [734.0, 731.0, 731.0, 730.0, 730.0, 729.0, 729.0, 729.0, 729.0, 729.0, 729.0, 730.0, 730.0, 730.0, 730.0, 729.0, 729.0, 729.0, 730.0, 730.0, 730.0, 730.0, 730.0, 729.0, 730.0, 730.0, 730.0, 730.0, 731.0, 730.0, 730.0, 730.0, 729.0, 729.0, 731.0, 730.0, 730.0, 731.0, 731.0, 731.0, 730.0, 730.0, 730.0, 730.0, 730.0, 730.0, 730.0, 731.0, 731.0, 731.0, 731.0, 730.0, 731.0, 730.0, 731.0, 731.0, 731.0, 730.0, 730.0, 731.0, 730.0, 730.0, 731.0, 730.0, 731.0, 731.0, 731.0, 731.0, 731.0, 731.0, 731.0, 731.0, 731.0, 730.0, 731.0, 731.0, 731.0, 731.0, 731.0, 730.0, 730.0, 731.0, 732.0, 731.0, 731.0, 731.0, 731.0, 730.0, 731.0, 730.0, 731.0, 731.0, 730.0, 730.0, 731.0, 731.0, 732.0, 732.0, 731.0, 731.0, 732.0, 732.0, 731.0, 731.0, 731.0, 731.0, 730.0, 731.0, 731.0, 731.0, 731.0, 731.0, 731.0, 731.0, 731.0, 731.0, 732.0, 732.0, 732.0, 732.0, 731.0, 731.0, 731.0, 731.0, 732.0, 731.0, 731.0, 731.0, 731.0, 731.0, 732.0, 731.0, 731.0, 731.0, 731.0, 731.0, 731.0, 732.0, 732.0, 732.0, 732.0, 732.0, 732.0, 732.0, 733.0, 732.0, 731.0, 731.0, 732.0, 733.0, 733.0, 733.0, 732.0, 731.0, 731.0, 732.0, 732.0, 732.0, 732.0, 732.0, 732.0, 731.0, 732.0, 732.0],
      "WindowWidth": [1606.0, 1596.0, 1596.0, 1594.0, 1593.0, 1592.0, 1592.0, 1591.0, 1591.0, 1592.0, 1592.0, 1593.0, 1594.0, 1594.0, 1593.0, 1590.0, 1591.0, 1592.0, 1594.0, 1594.0, 1595.0, 1594.0, 1594.0, 1592.0, 1595.0, 1595.0, 1595.0, 1595.0, 1596.0, 1594.0, 1594.0, 1593.0, 1592.0, 1593.0, 1596.0, 1593.0, 1594.0, 1596.0, 1597.0, 1596.0, 1594.0, 1594.0, 1594.0, 1594.0, 1596.0, 1595.0, 1596.0, 1596.0, 1596.0, 1596.0, 1596.0, 1595.0, 1596.0, 1595.0, 1597.0, 1597.0, 1596.0, 1594.0, 1595.0, 1596.0, 1595.0, 1595.0, 1596.0, 1594.0, 1596.0, 1596.0, 1595.0, 1596.0, 1597.0, 1597.0, 1596.0, 1597.0, 1597.0, 1595.0, 1596.0, 1596.0, 1597.0, 1597.0, 1598.0, 1595.0, 1595.0, 1597.0, 1599.0, 1598.0, 1598.0, 1596.0, 1597.0, 1596.0, 1596.0, 1595.0, 1597.0, 1596.0, 1595.0, 1595.0, 1597.0, 1597.0, 1599.0, 1600.0, 1598.0, 1598.0, 1600.0, 1600.0, 1596.0, 1597.0, 1597.0, 1598.0, 1595.0, 1597.0, 1597.0, 1596.0, 1597.0, 1598.0, 1597.0, 1598.0, 1597.0, 1597.0, 1600.0, 1600.0, 1599.0, 1599.0, 1598.0, 1598.0, 1597.0, 1597.0, 1601.0, 1597.0, 1597.0, 1597.0, 1597.0, 1598.0, 1600.0, 1598.0, 1598.0, 1598.0, 1597.0, 1598.0, 1597.0, 1599.0, 1599.0, 1600.0, 1599.0, 1599.0, 1600.0, 1600.0, 1602.0, 1600.0, 1598.0, 1598.0, 1598.0, 1603.0, 1603.0, 1602.0, 1599.0, 1597.0, 1596.0, 1600.0, 1600.0, 1600.0, 1600.0, 1599.0, 1599.0, 1597.0, 1599.0, 1599.0]
    },
    "slices": {}
  }
}