{
  "AcquisitionMatrixPE": 64,
  "AcquisitionNumber": 1,
  "AcquisitionTime": "12:26:50.755000",
  "BandwidthPerPixelPhaseEncode": 33.967,
  "BaseResolution": 64,
  "CoilCombinationMethod": "Sum of Squares",
  "CoilString": "C:HEA;HEP",
  "ConversionSoftware": "dcm2niix",
  "ConversionSoftwareVersion": "v1.0.20220720",
  "DerivedVendorReportedEchoSpacing": 0.000460005,
  "DeviceSerialNumber": "35193",
  "DwellTime": 3.1e-06,
  "EchoTime": 0.03,
  "EffectiveEchoSpacing": 0.000460005,
  "FlipAngle": 90,
  "HeudiconvVersion": "1.1.6",
  "ImageOrientationPatientDICOM": [1, 0, 0, 0, 1, 0],
  "ImageOrientationText": "Tra",
  "ImageType": [
    "ORIGINAL",
    "PRIMARY",
    "M",
    "ND",
    "MOSAIC"
],
  "ImagingFrequency": 123.254,
  "InPlanePhaseEncodingDirectionDICOM": "COL",
  "InstitutionAddress": "Xinjiekouwai Street No 19,Beijing,Haidian District,CN,100875",
  "InstitutionName": "Beijing Normal Universtiy/4C3F54/",
  "InstitutionalDepartmentName": "Department",
  "MRAcquisitionType": "2D",
  "MagneticFieldStrength": 3,
  "Manufacturer": "Siemens",
  "ManufacturersModelName": "TrioTim",
  "MatrixCoilMode": "SENSE",
  "Modality": "MR",
  "NonlinearGradientCorrection": false,
  "PartialFourier": 1,
  "PatientPosition": "HFS",
  "PercentPhaseFOV": 100,
  "PercentSampling": 100,
  "PhaseEncodingDirection": "j-",
  "PhaseEncodingSteps": 64,
  "PhaseResolution": 1,
  "PixelBandwidth": 2520,
  "ProcedureStepDescription": "BNU_cst_2015^Guo.TaoMei",
  "ProtocolName": "ge_func_3x3x4_164",
  "PulseSequenceDetails": "%SiemensSeq%\\ep2d_bold",
  "ReceiveCoilName": "HeadMatrix",
  "ReconMatrixPE": 64,
  "RepetitionTime": 2,
  "SAR": 0.145802,
  "ScanOptions": "FS",
  "ScanningSequence": "EP",
  "SequenceName": "*epfid2d1_64",
  "SequenceVariant": "SK",
  "SeriesDescription": "ge_func_3x3x4_164",
  "SeriesNumber": 4,
  "ShimSetting": [-4525, -19324, -9790, 1559, -205, 66, -437, -140],
  "SliceThickness": 4,
  "SliceTiming": [0, 1.035, 0.0625, 1.095, 0.1225, 1.1575, 0.1825, 1.2175, 0.245, 1.2775, 0.305, 1.34, 0.365, 1.4, 0.4275, 1.46, 0.4875, 1.5225, 0.5475, 1.5825, 0.61, 1.6425, 0.67, 1.705, 0.73, 1.765, 0.7925, 1.825, 0.8525, 1.8875, 0.9125, 1.9475, 0.975],
  "SoftwareVersions": "syngo MR B17",
  "SpacingBetweenSlices": 4.6,
  "StationName": "MRC35193",
  "TaskName": "LanguageControl",
  "TotalReadoutTime": 0.0289803,
  "TxRefAmp": 322.519,
  "dcmmeta_affine": [
    [-3.125, 0.0, 0.0, 109.44578552246094],
    [0.0, 3.125, 0.0, -86.7545166015625],
    [0.0, 0.0, 4.599999904632568, -60.10602569580078],
    [0.0, 0.0, 0.0, 1.0]
],
  "dcmmeta_reorient_transform": [
    [0.0, -1.0, 0.0, 63.0],
    [1.0, 0.0, 0.0, 0.0],
    [0.0, 0.0, 1.0, 0.0],
    [0.0, 0.0, 0.0, 1.0]
],
  "dcmmeta_shape": [64, 64, 33, 164],
  "dcmmeta_slice_dim": 2,
  "dcmmeta_version": 0.6,
  "global": {
    "const": {
      "AcquisitionMatrix": [64, 0, 0, 64],
      "AngioFlag": "N",
      "BitsAllocated": 16,
      "BitsStored": 12,
      "Columns": 384,
      "EchoNumbers": 1,
      "EchoTime": 30.0,
      "EchoTrainLength": 1,
      "FlipAngle": 90.0,
      "HighBit": 11,
      "ImageOrientationPatient": [1.0, 0.0, 0.0, 0.0, 1.0, 0.0],
      "ImagePositionPatient": [-609.44578266144, -610.12048149109, -60.106025695801],
      "ImageType": [
        "ORIGINAL",
        "PRIMARY",
        "M",
        "ND",
        "MOSAIC"
],
      "ImagedNucleus": "1H",
      "ImagingFrequency": 123.253705,
      "InPlanePhaseEncodingDirection": "COL",
      "MRAcquisitionType": "2D",
      "MagneticFieldStrength": 3.0,
      "Manufacturer": "SIEMENS",
      "ManufacturerModelName": "TrioTim",
      "Modality": "MR",
      "NumberOfAverages": 1.0,
      "NumberOfPhaseEncodingSteps": 64,
      "PercentPhaseFieldOfView": 100.0,
      "PercentSampling": 100.0,
      "PerformedProcedureStepStartTime": "120619.015000",
      "PhotometricInterpretation": "MONOCHROME2",
      "PixelBandwidth": 2520.0,
      "PixelRepresentation": 0,
      "PixelSpacing": [3.125, 3.125],
      "ProtocolName": "ge_func_3x3x4_164",
      "RepetitionTime": 2000.0,
      "Rows": 384,
      "SAR": 0.14580175728284,
      "SamplesPerPixel": 1,
      "ScanOptions": "FS",
      "ScanningSequence": "EP",
      "SequenceName": "*epfid2d1_64",
      "SequenceVariant": "SK",
      "SeriesDescription": "ge_func_3x3x4_164",
      "SeriesNumber": 4,
      "SeriesTime": "122740.078000",
      "SliceLocation": -60.106025695801,
      "SliceThickness": 4.0,
      "SmallestImagePixelValue": 0,
      "SoftwareVersions": "syngo MR B17",
      "SpacingBetweenSlices": 4.6000001430511,
      "SpecificCharacterSet": "ISO_IR 100",
      "StudyID": "1",
      "StudyTime": "120618.968000",
      "TransmitCoilName": "Body",
      "VariableFlipAngleFlag": "N",
      "WindowCenterWidthExplanation": "Algo1",
      "dBdt": 0.0},
    "slices": {}
  },
  "time": {
    "samples": {
      "AcquisitionNumber": [1, 2, 3, 4, 5, 6, 7, 8, 9, 10, 11, 12, 13, 14, 15, 16, 17, 18, 19, 20, 21, 22, 23, 24, 25, 26, 27, 28, 29, 30, 31, 32, 33, 34, 35, 36, 37, 38, 39, 40, 41, 42, 43, 44, 45, 46, 47, 48, 49, 50, 51, 52, 53, 54, 55, 56, 57, 58, 59, 60, 61, 62, 63, 64, 65, 66, 67, 68, 69, 70, 71, 72, 73, 74, 75, 76, 77, 78, 79, 80, 81, 82, 83, 84, 85, 86, 87, 88, 89, 90, 91, 92, 93, 94, 95, 96, 97, 98, 99, 100, 101, 102, 103, 104, 105, 106, 107, 108, 109, 110, 111, 112, 113, 114, 115, 116, 117, 118, 119, 120, 121, 122, 123, 124, 125, 126, 127, 128, 129, 130, 131, 132, 133, 134, 135, 136, 137, 138, 139, 140, 141, 142, 143, 144, 145, 146, 147, 148, 149, 150, 151, 152, 153, 154, 155, 156, 157, 158, 159, 160, 161, 162, 163, 164],
      "AcquisitionTime": ["122650.755000", "122652.765000", "122654.772500", "122656.780000", "122658.787500", "122700.797500", "122702.805000", "122704.812500", "122706.820000", "122708.827500", "122710.837500", "122712.845000", "122714.852500", "122716.860000", "122718.867500", "122720.877500", "122722.885000", "122724.892500", "122726.900000", "122728.910000", "122730.917500", "122732.925000", "122734.932500", "122736.940000", "122738.950000", "122740.957500", "122742.965000", "122744.972500", "122746.980000", "122748.990000", "122750.997500", "122753.005000", "122755.012500", "122757.020000", "122759.030000", "122801.037500", "122803.045000", "122805.052500", "122807.062500", "122809.070000", "122811.077500", "122813.085000", "122815.092500", "122817.102500", "122819.110000", "122821.117500", "122823.125000", "122825.132500", "122827.142500", "122829.150000", "122831.157500", "122833.165000", "122835.175000", "122837.182500", "122839.190000", "122841.197500", "122843.205000", "122845.215000", "122847.222500", "122849.230000", "122851.237500", "122853.245000", "122855.255000", "122857.262500", "122859.270000", "122901.277500", "122903.287500", "122905.295000", "122907.302500", "122909.310000", "122911.317500", "122913.327500", "122915.335000", "122917.342500", "122919.350000", "122921.357500", "122923.367500", "122925.375000", "122927.382500", "122929.390000", "122931.397500", "122933.407500", "122935.415000", "122937.422500", "122939.430000", "122941.440000", "122943.447500", "122945.455000", "122947.462500", "122949.470000", "122951.480000", "122953.487500", "122955.495000", "122957.502500", "122959.510000", "123001.520000", "123003.527500", "123005.535000", "123007.542500", "123009.552500", "123011.560000", "123013.567500", "123015.575000", "123017.582500", "123019.592500", "123021.600000", "123023.607500", "123025.615000", "123027.622500", "123029.632500", "123031.640000", "123033.647500", "123035.655000", "123037.665000", "123039.672500", "123041.680000", "123043.687500", "123045.695000", "123047.705000", "123049.712500", "123051.720000", "123053.727500", "123055.735000", "123057.745000", "123059.752500", "123101.760000", "123103.767500", "123105.775000", "123107.785000", "123109.792500", "123111.800000", "123113.807500", "123115.817500", "123117.825000", "123119.832500", "123121.840000", "123123.847500", "123125.857500", "123127.865000", "123129.872500", "123131.880000", "123133.887500", "123135.897500", "123137.905000", "123139.912500", "123141.920000", "123143.930000", "123145.937500", "123147.945000", "123149.952500", "123151.960000", "123153.970000", "123155.977500", "123157.985000", "123159.992500", "123202.000000", "123204.010000", "123206.017500", "123208.025000", "123210.032500", "123212.042500", "123214.050000", "123216.057500", "123218.065000"],
      "ContentTime": ["122740.078000", "122740.078000", "122740.078000", "122740.078000", "122740.078000", "122740.093000", "122740.093000", "122740.093000", "122740.109000", "122740.109000", "122740.109000", "122740.109000", "122740.109000", "122740.109000", "122740.125000", "122740.125000", "122740.125000", "122740.125000", "122740.125000", "122740.125000", "122740.140000", "122740.140000", "122740.140000", "122740.140000", "122820.062000", "122820.078000", "122820.078000", "122820.078000", "122820.078000", "122820.078000", "122820.078000", "122820.078000", "122820.078000", "122820.078000", "122820.093000", "122820.093000", "122820.093000", "122820.093000", "122820.093000", "122820.093000", "122820.093000", "122820.093000", "122820.109000", "122820.109000", "122900.062000", "122900.078000", "122900.078000", "122900.078000", "122900.078000", "122900.078000", "122900.078000", "122900.093000", "122900.093000", "122900.093000", "122900.093000", "122900.093000", "122900.093000", "122900.093000", "122900.109000", "122900.109000", "122900.109000", "122900.109000", "122900.109000", "122900.109000", "122940.062000", "122940.078000", "122940.078000", "122940.078000", "122940.093000", "122940.093000", "122940.093000", "122940.093000", "122940.093000", "122940.093000", "122940.093000", "122940.109000", "122940.109000", "122940.109000", "122940.109000", "122940.109000", "122940.125000", "122940.125000", "122940.125000", "122940.125000", "123020.062000", "123020.078000", "123020.078000", "123020.078000", "123020.093000", "123020.093000", "123020.093000", "123020.109000", "123020.109000", "123020.109000", "123020.109000", "123020.109000", "123020.109000", "123020.125000", "123020.125000", "123020.125000", "123020.125000", "123020.125000", "123020.125000", "123020.125000", "123100.062000", "123100.078000", "123100.078000", "123100.078000", "123100.078000", "123100.093000", "123100.093000", "123100.093000", "123100.109000", "123100.109000", "123100.109000", "123100.109000", "123100.109000", "123100.125000", "123100.125000", "123100.125000", "123100.125000", "123100.125000", "123100.125000", "123100.125000", "123140.062000", "123140.078000", "123140.078000", "123140.078000", "123140.078000", "123140.078000", "123140.078000", "123140.093000", "123140.093000", "123140.093000", "123140.093000", "123140.109000", "123140.109000", "123140.109000", "123140.109000", "123140.109000", "123140.109000", "123140.109000", "123140.109000", "123140.125000", "123218.781000", "123218.781000", "123218.781000", "123218.781000", "123218.781000", "123218.796000", "123218.796000", "123218.796000", "123218.796000", "123218.796000", "123218.796000", "123218.796000", "123218.812000", "123218.812000", "123218.812000", "123218.812000", "123218.812000", "123218.812000", "123218.812000", "123218.812000"],
      "InstanceCreationTime": ["122740.078000", "122740.078000", "122740.078000", "122740.078000", "122740.078000", "122740.093000", "122740.093000", "122740.093000", "122740.109000", "122740.109000", "122740.109000", "122740.109000", "122740.109000", "122740.109000", "122740.125000", "122740.125000", "122740.125000", "122740.125000", "122740.125000", "122740.125000", "122740.140000", "122740.140000", "122740.140000", "122740.140000", "122820.062000", "122820.078000", "122820.078000", "122820.078000", "122820.078000", "122820.078000", "122820.078000", "122820.078000", "122820.078000", "122820.078000", "122820.093000", "122820.093000", "122820.093000", "122820.093000", "122820.093000", "122820.093000", "122820.093000", "122820.093000", "122820.109000", "122820.109000", "122900.062000", "122900.078000", "122900.078000", "122900.078000", "122900.078000", "122900.078000", "122900.078000", "122900.093000", "122900.093000", "122900.093000", "122900.093000", "122900.093000", "122900.093000", "122900.093000", "122900.109000", "122900.109000", "122900.109000", "122900.109000", "122900.109000", "122900.109000", "122940.062000", "122940.078000", "122940.078000", "122940.078000", "122940.093000", "122940.093000", "122940.093000", "122940.093000", "122940.093000", "122940.093000", "122940.093000", "122940.109000", "122940.109000", "122940.109000", "122940.109000", "122940.109000", "122940.125000", "122940.125000", "122940.125000", "122940.125000", "123020.062000", "123020.078000", "123020.078000", "123020.078000", "123020.093000", "123020.093000", "123020.093000", "123020.109000", "123020.109000", "123020.109000", "123020.109000", "123020.109000", "123020.109000", "123020.125000", "123020.125000", "123020.125000", "123020.125000", "123020.125000", "123020.125000", "123020.125000", "123100.062000", "123100.078000", "123100.078000", "123100.078000", "123100.078000", "123100.093000", "123100.093000", "123100.093000", "123100.109000", "123100.109000", "123100.109000", "123100.109000", "123100.109000", "123100.125000", "123100.125000", "123100.125000", "123100.125000", "123100.125000", "123100.125000", "123100.125000", "123140.062000", "123140.078000", "123140.078000", "123140.078000", "123140.078000", "123140.078000", "123140.078000", "123140.093000", "123140.093000", "123140.093000", "123140.093000", "123140.109000", "123140.109000", "123140.109000", "123140.109000", "123140.109000", "123140.109000", "123140.109000", "123140.109000", "123140.125000", "123218.781000", "123218.781000", "123218.781000", "123218.781000", "123218.781000", "123218.796000", "123218.796000", "123218.796000", "123218.796000", "123218.796000", "123218.796000", "123218.796000", "123218.812000", "123218.812000", "123218.812000", "123218.812000", "123218.812000", "123218.812000", "123218.812000", "123218.812000"],
      "InstanceNumber": [1, 2, 3, 4, 5, 6, 7, 8, 9, 10, 11, 12, 13, 14, 15, 16, 17, 18, 19, 20, 21, 22, 23, 24, 25, 26, 27, 28, 29, 30, 31, 32, 33, 34, 35, 36, 37, 38, 39, 40, 41, 42, 43, 44, 45, 46, 47, 48, 49, 50, 51, 52, 53, 54, 55, 56, 57, 58, 59, 60, 61, 62, 63, 64, 65, 66, 67, 68, 69, 70, 71, 72, 73, 74, 75, 76, 77, 78, 79, 80, 81, 82, 83, 84, 85, 86, 87, 88, 89, 90, 91, 92, 93, 94, 95, 96, 97, 98, 99, 100, 101, 102, 103, 104, 105, 106, 107, 108, 109, 110, 111, 112, 113, 114, 115, 116, 117, 118, 119, 120, 121, 122, 123, 124, 125, 126, 127, 128, 129, 130, 131, 132, 133, 134, 135, 136, 137, 138, 139, 140, 141, 142, 143, 144, 145, 146, 147, 148, 149, 150, 151, 152, 153, 154, 155, 156, 157, 158, 159, 160, 161, 162, 163, 164],
      "LargestImagePixelValue": [1983, 1901, 1892, 1863, 1869, 1848, 1840, 1857, 1850, 1856, 1866, 1873, 1856, 1864, 1855, 1876, 1860, 1859, 1860, 1847, 1841, 1852, 1886, 1889, 1874, 1887, 1870, 1894, 1876, 1885, 1869, 1876, 1882, 1860, 1881, 1872, 1888, 1865, 1890, 1869, 1900, 1892, 1888, 1874, 1858, 1901, 1870, 1900, 1882, 1879, 1878, 1877, 1875, 1886, 1890, 1871, 1883, 1896, 1874, 1896, 1887, 1919, 1893, 1902, 1907, 1894, 1901, 1887, 1909, 1900, 1907, 1881, 1887, 1886, 1885, 1893, 1895, 1892, 1908, 1910, 1923, 1917, 1911, 1885, 1888, 1895, 1894, 1887, 1879, 1913, 1902, 1906, 1895, 1912, 1893, 1909, 1895, 1919, 1915, 1911, 1896, 1887, 1905, 1891, 1907, 1897, 1902, 1911, 1926, 1913, 1933, 1937, 1929, 1930, 1921, 1918, 1934, 1925, 1938, 1941, 1932, 1947, 1924, 1932, 1949, 1955, 1947, 1949, 1938, 1937, 1931, 1922, 1934, 1941, 1944, 1934, 1939, 1934, 1934, 1942, 1935, 1950, 1938, 1915, 1921, 1962, 1938, 1917, 1917, 1933, 1947, 1939, 1943, 1947, 1943, 1937, 1934, 1927, 1918, 1949, 1927, 1933, 1948, 1929],
      "WindowCenter": [735.0, 733.0, 734.0, 734.0, 734.0, 733.0, 732.0, 732.0, 732.0, 733.0, 732.0, 733.0, 733.0, 733.0, 733.0, 732.0, 732.0, 732.0, 731.0, 733.0, 733.0, 733.0, 733.0, 732.0, 733.0, 732.0, 732.0, 732.0, 732.0, 733.0, 733.0, 733.0, 733.0, 732.0, 732.0, 732.0, 733.0, 732.0, 732.0, 732.0, 732.0, 732.0, 731.0, 731.0, 731.0, 731.0, 732.0, 733.0, 732.0, 732.0, 733.0, 733.0, 733.0, 733.0, 733.0, 733.0, 733.0, 734.0, 733.0, 733.0, 733.0, 733.0, 733.0, 732.0, 732.0, 733.0, 732.0, 733.0, 734.0, 734.0, 733.0, 733.0, 734.0, 734.0, 733.0, 733.0, 734.0, 734.0, 733.0, 733.0, 732.0, 733.0, 733.0, 733.0, 732.0, 732.0, 733.0, 734.0, 734.0, 734.0, 733.0, 732.0, 733.0, 733.0, 733.0, 733.0, 733.0, 733.0, 733.0, 733.0, 733.0, 732.0, 733.0, 733.0, 733.0, 733.0, 734.0, 734.0, 734.0, 733.0, 733.0, 734.0, 734.0, 733.0, 734.0, 734.0, 734.0, 733.0, 733.0, 733.0, 733.0, 734.0, 734.0, 734.0, 734.0, 735.0, 733.0, 734.0, 734.0, 734.0, 734.0, 734.0, 735.0, 734.0, 734.0, 735.0, 734.0, 734.0, 734.0, 734.0, 734.0, 734.0, 734.0, 734.0, 735.0, 735.0, 733.0, 734.0, 734.0, 734.0, 734.0, 734.0, 735.0, 735.0, 735.0, 735.0, 734.0, 734.0, 734.0, 734.0, 734.0, 735.0, 734.0, 734.0],
      "WindowWidth": [1609.0, 1603.0, 1606.0, 1607.0, 1604.0, 1603.0, 1599.0, 1600.0, 1601.0, 1602.0, 1601.0, 1602.0, 1603.0, 1602.0, 1603.0, 1601.0, 1601.0, 1599.0, 1599.0, 1603.0, 1604.0, 1604.0, 1602.0, 1601.0, 1602.0, 1601.0, 1601.0, 1601.0, 1601.0, 1604.0, 1603.0, 1604.0, 1602.0, 1601.0, 1601.0, 1601.0, 1602.0, 1601.0, 1601.0, 1601.0, 1599.0, 1600.0, 1597.0, 1597.0, 1596.0, 1598.0, 1602.0, 1603.0, 1600.0, 1600.0, 1602.0, 1603.0, 1604.0, 1604.0, 1603.0, 1603.0, 1605.0, 1605.0, 1604.0, 1604.0, 1604.0, 1605.0, 1604.0, 1601.0, 1602.0, 1602.0, 1601.0, 1603.0, 1606.0, 1605.0, 1602.0, 1604.0, 1606.0, 1606.0, 1603.0, 1602.0, 1606.0, 1605.0, 1604.0, 1602.0, 1601.0, 1603.0, 1604.0, 1602.0, 1601.0, 1600.0, 1603.0, 1606.0, 1605.0, 1605.0, 1603.0, 1601.0, 1602.0, 1602.0, 1603.0, 1603.0, 1603.0, 1602.0, 1604.0, 1603.0, 1602.0, 1602.0, 1603.0, 1604.0, 1604.0, 1603.0, 1606.0, 1606.0, 1604.0, 1604.0, 1605.0, 1605.0, 1605.0, 1604.0, 1605.0, 1606.0, 1605.0, 1603.0, 1601.0, 1603.0, 1604.0, 1605.0, 1605.0, 1606.0, 1606.0, 1608.0, 1603.0, 1606.0, 1607.0, 1607.0, 1606.0, 1605.0, 1608.0, 1607.0, 1606.0, 1608.0, 1605.0, 1605.0, 1605.0, 1606.0, 1607.0, 1605.0, 1605.0, 1607.0, 1608.0, 1607.0, 1604.0, 1605.0, 1607.0, 1606.0, 1607.0, 1607.0, 1609.0, 1609.0, 1608.0, 1607.0, 1606.0, 1607.0, 1607.0, 1607.0, 1607.0, 1607.0, 1606.0, 1606.0]
    },
    "slices": {}
  }
}