{
  "AcquisitionMatrixPE": 64,
  "AcquisitionNumber": 1,
  "AcquisitionTime": "12:13:53.095000",
  "BandwidthPerPixelPhaseEncode": 33.967,
  "BaseResolution": 64,
  "CoilCombinationMethod": "Sum of Squares",
  "CoilString": "C:HEA;HEP",
  "ConversionSoftware": "dcm2niix",
  "ConversionSoftwareVersion": "v1.0.20220720",
  "DerivedVendorReportedEchoSpacing": 0.000460005,
  "DeviceSerialNumber": "35193",
  "DwellTime": 3.1e-06,
  "EchoTime": 0.03,
  "EffectiveEchoSpacing": 0.000460005,
  "FlipAngle": 90,
  "HeudiconvVersion": "1.1.6",
  "ImageOrientationPatientDICOM": [1, 0, 0, 0, 1, 0],
  "ImageOrientationText": "Tra",
  "ImageType": [
    "ORIGINAL",
    "PRIMARY",
    "M",
    "ND",
    "MOSAIC"
],
  "ImagingFrequency": 123.254,
  "InPlanePhaseEncodingDirectionDICOM": "COL",
  "InstitutionAddress": "Xinjiekouwai Street No 19,Beijing,Haidian District,CN,100875",
  "InstitutionName": "Beijing Normal Universtiy/4C3F54/",
  "InstitutionalDepartmentName": "Department",
  "MRAcquisitionType": "2D",
  "MagneticFieldStrength": 3,
  "Manufacturer": "Siemens",
  "ManufacturersModelName": "TrioTim",
  "MatrixCoilMode": "SENSE",
  "Modality": "MR",
  "NonlinearGradientCorrection": false,
  "PartialFourier": 1,
  "PatientPosition": "HFS",
  "PercentPhaseFOV": 100,
  "PercentSampling": 100,
  "PhaseEncodingDirection": "j-",
  "PhaseEncodingSteps": 64,
  "PhaseResolution": 1,
  "PixelBandwidth": 2520,
  "ProcedureStepDescription": "BNU_cst_2015^Guo.TaoMei",
  "ProtocolName": "ge_func_3x3x4_164",
  "PulseSequenceDetails": "%SiemensSeq%\\ep2d_bold",
  "ReceiveCoilName": "HeadMatrix",
  "ReconMatrixPE": 64,
  "RepetitionTime": 2,
  "SAR": 0.145802,
  "ScanOptions": "FS",
  "ScanningSequence": "EP",
  "SequenceName": "*epfid2d1_64",
  "SequenceVariant": "SK",
  "SeriesDescription": "ge_func_3x3x4_164",
  "SeriesNumber": 2,
  "ShimSetting": [-4525, -19324, -9790, 1559, -205, 66, -437, -140],
  "SliceThickness": 4,
  "SliceTiming": [0, 1.035, 0.0625, 1.095, 0.1225, 1.1575, 0.1825, 1.2175, 0.245, 1.2775, 0.305, 1.34, 0.365, 1.4, 0.4275, 1.46, 0.4875, 1.5225, 0.5475, 1.5825, 0.61, 1.6425, 0.67, 1.705, 0.73, 1.765, 0.7925, 1.825, 0.8525, 1.8875, 0.9125, 1.9475, 0.975],
  "SoftwareVersions": "syngo MR B17",
  "SpacingBetweenSlices": 4.6,
  "StationName": "MRC35193",
  "TaskName": "CognitiveControl",
  "TotalReadoutTime": 0.0289803,
  "TxRefAmp": 322.519,
  "dcmmeta_affine": [
    [-3.125, 0.0, 0.0, 109.44578552246094],
    [0.0, 3.125, 0.0, -86.7545166015625],
    [0.0, 0.0, 4.599999904632568, -60.10602569580078],
    [0.0, 0.0, 0.0, 1.0]
],
  "dcmmeta_reorient_transform": [
    [0.0, -1.0, 0.0, 63.0],
    [1.0, 0.0, 0.0, 0.0],
    [0.0, 0.0, 1.0, 0.0],
    [0.0, 0.0, 0.0, 1.0]
],
  "dcmmeta_shape": [64, 64, 33, 164],
  "dcmmeta_slice_dim": 2,
  "dcmmeta_version": 0.6,
  "global": {
    "const": {
      "AcquisitionMatrix": [64, 0, 0, 64],
      "AngioFlag": "N",
      "BitsAllocated": 16,
      "BitsStored": 12,
      "Columns": 384,
      "EchoNumbers": 1,
      "EchoTime": 30.0,
      "EchoTrainLength": 1,
      "FlipAngle": 90.0,
      "HighBit": 11,
      "ImageOrientationPatient": [1.0, 0.0, 0.0, 0.0, 1.0, 0.0],
      "ImagePositionPatient": [-609.44578266144, -610.12048149109, -60.106025695801],
      "ImageType": [
        "ORIGINAL",
        "PRIMARY",
        "M",
        "ND",
        "MOSAIC"
],
      "ImagedNucleus": "1H",
      "ImagingFrequency": 123.253704,
      "InPlanePhaseEncodingDirection": "COL",
      "MRAcquisitionType": "2D",
      "MagneticFieldStrength": 3.0,
      "Manufacturer": "SIEMENS",
      "ManufacturerModelName": "TrioTim",
      "Modality": "MR",
      "NumberOfAverages": 1.0,
      "NumberOfPhaseEncodingSteps": 64,
      "PercentPhaseFieldOfView": 100.0,
      "PercentSampling": 100.0,
      "PerformedProcedureStepStartTime": "120619.015000",
      "PhotometricInterpretation": "MONOCHROME2",
      "PixelBandwidth": 2520.0,
      "PixelRepresentation": 0,
      "PixelSpacing": [3.125, 3.125],
      "ProtocolName": "ge_func_3x3x4_164",
      "RepetitionTime": 2000.0,
      "Rows": 384,
      "SAR": 0.14580175728284,
      "SamplesPerPixel": 1,
      "ScanOptions": "FS",
      "ScanningSequence": "EP",
      "SequenceName": "*epfid2d1_64",
      "SequenceVariant": "SK",
      "SeriesDescription": "ge_func_3x3x4_164",
      "SeriesNumber": 2,
      "SeriesTime": "121441.078000",
      "SliceLocation": -60.106025695801,
      "SliceThickness": 4.0,
      "SmallestImagePixelValue": 0,
      "SoftwareVersions": "syngo MR B17",
      "SpacingBetweenSlices": 4.6000001430511,
      "SpecificCharacterSet": "ISO_IR 100",
      "StudyID": "1",
      "StudyTime": "120618.968000",
      "TransmitCoilName": "Body",
      "VariableFlipAngleFlag": "N",
      "WindowCenterWidthExplanation": "Algo1",
      "dBdt": 0.0},
    "slices": {}
  },
  "time": {
    "samples": {
      "AcquisitionNumber": [1, 2, 3, 4, 5, 6, 7, 8, 9, 10, 11, 12, 13, 14, 15, 16, 17, 18, 19, 20, 21, 22, 23, 24, 25, 26, 27, 28, 29, 30, 31, 32, 33, 34, 35, 36, 37, 38, 39, 40, 41, 42, 43, 44, 45, 46, 47, 48, 49, 50, 51, 52, 53, 54, 55, 56, 57, 58, 59, 60, 61, 62, 63, 64, 65, 66, 67, 68, 69, 70, 71, 72, 73, 74, 75, 76, 77, 78, 79, 80, 81, 82, 83, 84, 85, 86, 87, 88, 89, 90, 91, 92, 93, 94, 95, 96, 97, 98, 99, 100, 101, 102, 103, 104, 105, 106, 107, 108, 109, 110, 111, 112, 113, 114, 115, 116, 117, 118, 119, 120, 121, 122, 123, 124, 125, 126, 127, 128, 129, 130, 131, 132, 133, 134, 135, 136, 137, 138, 139, 140, 141, 142, 143, 144, 145, 146, 147, 148, 149, 150, 151, 152, 153, 154, 155, 156, 157, 158, 159, 160, 161, 162, 163, 164],
      "AcquisitionTime": ["121353.095000", "121355.105000", "121357.112500", "121359.120000", "121401.127500", "121403.135000", "121405.145000", "121407.152500", "121409.160000", "121411.167500", "121413.175000", "121415.185000", "121417.192500", "121419.200000", "121421.207500", "121423.215000", "121425.225000", "121427.232500", "121429.240000", "121431.247500", "121433.257500", "121435.265000", "121437.272500", "121439.280000", "121441.287500", "121443.297500", "121445.305000", "121447.312500", "121449.320000", "121451.327500", "121453.337500", "121455.345000", "121457.352500", "121459.360000", "121501.370000", "121503.377500", "121505.385000", "121507.392500", "121509.400000", "121511.410000", "121513.417500", "121515.425000", "121517.432500", "121519.440000", "121521.450000", "121523.457500", "121525.465000", "121527.472500", "121529.482500", "121531.490000", "121533.497500", "121535.505000", "121537.512500", "121539.522500", "121541.530000", "121543.537500", "121545.545000", "121547.552500", "121549.562500", "121551.570000", "121553.577500", "121555.585000", "121557.592500", "121559.602500", "121601.610000", "121603.617500", "121605.625000", "121607.635000", "121609.642500", "121611.650000", "121613.657500", "121615.665000", "121617.675000", "121619.682500", "121621.690000", "121623.697500", "121625.705000", "121627.715000", "121629.722500", "121631.730000", "121633.737500", "121635.747500", "121637.755000", "121639.762500", "121641.770000", "121643.777500", "121645.787500", "121647.795000", "121649.802500", "121651.810000", "121653.817500", "121655.827500", "121657.835000", "121659.842500", "121701.850000", "121703.860000", "121705.867500", "121707.875000", "121709.882500", "121711.890000", "121713.900000", "121715.907500", "121717.915000", "121719.922500", "121721.930000", "121723.940000", "121725.947500", "121727.955000", "121729.962500", "121731.970000", "121733.980000", "121735.987500", "121737.995000", "121740.002500", "121742.012500", "121744.020000", "121746.027500", "121748.035000", "121750.042500", "121752.052500", "121754.060000", "121756.067500", "121758.075000", "121800.082500", "121802.092500", "121804.100000", "121806.107500", "121808.115000", "121810.125000", "121812.132500", "121814.140000", "121816.147500", "121818.155000", "121820.165000", "121822.172500", "121824.180000", "121826.187500", "121828.195000", "121830.205000", "121832.212500", "121834.220000", "121836.227500", "121838.237500", "121840.245000", "121842.252500", "121844.260000", "121846.267500", "121848.277500", "121850.285000", "121852.292500", "121854.300000", "121856.307500", "121858.317500", "121900.325000", "121902.332500", "121904.340000", "121906.347500", "121908.357500", "121910.365000", "121912.372500", "121914.380000", "121916.390000", "121918.397500", "121920.405000"],
      "ContentTime": ["121441.078000", "121441.078000", "121441.078000", "121441.078000", "121441.078000", "121441.093000", "121441.093000", "121441.093000", "121441.109000", "121441.109000", "121441.109000", "121441.109000", "121441.109000", "121441.109000", "121441.109000", "121441.109000", "121441.109000", "121441.125000", "121441.125000", "121441.125000", "121441.125000", "121441.125000", "121441.125000", "121521.062000", "121521.078000", "121521.078000", "121521.078000", "121521.078000", "121521.078000", "121521.078000", "121521.078000", "121521.078000", "121521.093000", "121521.093000", "121521.093000", "121521.093000", "121521.093000", "121521.109000", "121521.109000", "121521.109000", "121521.109000", "121521.109000", "121521.109000", "121601.062000", "121601.078000", "121601.078000", "121601.078000", "121601.078000", "121601.078000", "121601.078000", "121601.078000", "121601.093000", "121601.109000", "121601.109000", "121601.109000", "121601.125000", "121601.125000", "121601.125000", "121601.125000", "121601.125000", "121601.140000", "121601.140000", "121601.140000", "121641.062000", "121641.078000", "121641.078000", "121641.078000", "121641.078000", "121641.078000", "121641.093000", "121641.093000", "121641.093000", "121641.093000", "121641.093000", "121641.109000", "121641.109000", "121641.109000", "121641.109000", "121641.109000", "121641.109000", "121641.109000", "121641.125000", "121641.125000", "121721.062000", "121721.078000", "121721.078000", "121721.093000", "121721.093000", "121721.093000", "121721.093000", "121721.093000", "121721.093000", "121721.093000", "121721.109000", "121721.109000", "121721.109000", "121721.109000", "121721.109000", "121721.125000", "121721.125000", "121721.125000", "121721.140000", "121721.140000", "121801.062000", "121801.078000", "121801.078000", "121801.078000", "121801.078000", "121801.078000", "121801.078000", "121801.078000", "121801.093000", "121801.093000", "121801.093000", "121801.093000", "121801.093000", "121801.093000", "121801.093000", "121801.093000", "121801.109000", "121801.109000", "121801.109000", "121801.109000", "121841.062000", "121841.078000", "121841.078000", "121841.078000", "121841.078000", "121841.078000", "121841.093000", "121841.093000", "121841.093000", "121841.093000", "121841.093000", "121841.093000", "121841.093000", "121841.109000", "121841.109000", "121841.109000", "121841.109000", "121841.125000", "121841.125000", "121841.125000", "121901.062000", "121901.078000", "121901.078000", "121901.078000", "121901.078000", "121901.093000", "121901.093000", "121901.093000", "121901.093000", "121901.109000", "121921.109000", "121921.109000", "121921.109000", "121921.109000", "121921.109000", "121921.125000", "121921.125000", "121921.125000", "121921.125000", "121921.125000", "121921.125000"],
      "InstanceCreationTime": ["121441.078000", "121441.078000", "121441.078000", "121441.078000", "121441.078000", "121441.093000", "121441.093000", "121441.093000", "121441.109000", "121441.109000", "121441.109000", "121441.109000", "121441.109000", "121441.109000", "121441.109000", "121441.109000", "121441.109000", "121441.125000", "121441.125000", "121441.125000", "121441.125000", "121441.125000", "121441.125000", "121521.062000", "121521.078000", "121521.078000", "121521.078000", "121521.078000", "121521.078000", "121521.078000", "121521.078000", "121521.078000", "121521.093000", "121521.093000", "121521.093000", "121521.093000", "121521.093000", "121521.109000", "121521.109000", "121521.109000", "121521.109000", "121521.109000", "121521.109000", "121601.062000", "121601.078000", "121601.078000", "121601.078000", "121601.078000", "121601.078000", "121601.078000", "121601.078000", "121601.093000", "121601.109000", "121601.109000", "121601.109000", "121601.125000", "121601.125000", "121601.125000", "121601.125000", "121601.125000", "121601.140000", "121601.140000", "121601.140000", "121641.062000", "121641.078000", "121641.078000", "121641.078000", "121641.078000", "121641.078000", "121641.093000", "121641.093000", "121641.093000", "121641.093000", "121641.093000", "121641.109000", "121641.109000", "121641.109000", "121641.109000", "121641.109000", "121641.109000", "121641.109000", "121641.125000", "121641.125000", "121721.062000", "121721.078000", "121721.078000", "121721.093000", "121721.093000", "121721.093000", "121721.093000", "121721.093000", "121721.093000", "121721.093000", "121721.109000", "121721.109000", "121721.109000", "121721.109000", "121721.109000", "121721.125000", "121721.125000", "121721.125000", "121721.140000", "121721.140000", "121801.062000", "121801.078000", "121801.078000", "121801.078000", "121801.078000", "121801.078000", "121801.078000", "121801.078000", "121801.093000", "121801.093000", "121801.093000", "121801.093000", "121801.093000", "121801.093000", "121801.093000", "121801.093000", "121801.109000", "121801.109000", "121801.109000", "121801.109000", "121841.062000", "121841.078000", "121841.078000", "121841.078000", "121841.078000", "121841.078000", "121841.093000", "121841.093000", "121841.093000", "121841.093000", "121841.093000", "121841.093000", "121841.093000", "121841.109000", "121841.109000", "121841.109000", "121841.109000", "121841.125000", "121841.125000", "121841.125000", "121901.062000", "121901.078000", "121901.078000", "121901.078000", "121901.078000", "121901.093000", "121901.093000", "121901.093000", "121901.093000", "121901.109000", "121921.109000", "121921.109000", "121921.109000", "121921.109000", "121921.109000", "121921.125000", "121921.125000", "121921.125000", "121921.125000", "121921.125000", "121921.125000"],
      "InstanceNumber": [1, 2, 3, 4, 5, 6, 7, 8, 9, 10, 11, 12, 13, 14, 15, 16, 17, 18, 19, 20, 21, 22, 23, 24, 25, 26, 27, 28, 29, 30, 31, 32, 33, 34, 35, 36, 37, 38, 39, 40, 41, 42, 43, 44, 45, 46, 47, 48, 49, 50, 51, 52, 53, 54, 55, 56, 57, 58, 59, 60, 61, 62, 63, 64, 65, 66, 67, 68, 69, 70, 71, 72, 73, 74, 75, 76, 77, 78, 79, 80, 81, 82, 83, 84, 85, 86, 87, 88, 89, 90, 91, 92, 93, 94, 95, 96, 97, 98, 99, 100, 101, 102, 103, 104, 105, 106, 107, 108, 109, 110, 111, 112, 113, 114, 115, 116, 117, 118, 119, 120, 121, 122, 123, 124, 125, 126, 127, 128, 129, 130, 131, 132, 133, 134, 135, 136, 137, 138, 139, 140, 141, 142, 143, 144, 145, 146, 147, 148, 149, 150, 151, 152, 153, 154, 155, 156, 157, 158, 159, 160, 161, 162, 163, 164],
      "LargestImagePixelValue": [1901, 1835, 1819, 1825, 1813, 1816, 1806, 1801, 1812, 1803, 1800, 1810, 1812, 1808, 1828, 1817, 1844, 1814, 1813, 1831, 1804, 1822, 1797, 1822, 1835, 1802, 1807, 1788, 1822, 1828, 1807, 1816, 1820, 1832, 1796, 1795, 1819, 1819, 1806, 1823, 1809, 1805, 1832, 1823, 1832, 1797, 1807, 1825, 1836, 1850, 1809, 1828, 1814, 1801, 1821, 1829, 1844, 1841, 1824, 1826, 1815, 1803, 1814, 1810, 1830, 1836, 1833, 1827, 1825, 1811, 1820, 1804, 1825, 1824, 1825, 1807, 1803, 1813, 1802, 1811, 1806, 1821, 1819, 1811, 1811, 1825, 1835, 1821, 1824, 1821, 1821, 1811, 1817, 1824, 1831, 1812, 1803, 1809, 1821, 1797, 1799, 1796, 1801, 1815, 1805, 1806, 1805, 1790, 1786, 1791, 1803, 1801, 1790, 1811, 1823, 1794, 1806, 1812, 1800, 1791, 1787, 1791, 1806, 1808, 1811, 1798, 1796, 1800, 1807, 1779, 1813, 1781, 1805, 1797, 1802, 1791, 1801, 1797, 1811, 1803, 1808, 1802, 1792, 1820, 1820, 1810, 1791, 1813, 1820, 1805, 1817, 1806, 1813, 1828, 1817, 1827, 1836, 1839, 1830, 1799, 1817, 1816, 1818, 1822],
      "WindowCenter": [732.0, 729.0, 728.0, 728.0, 728.0, 728.0, 728.0, 728.0, 728.0, 728.0, 727.0, 727.0, 728.0, 728.0, 728.0, 728.0, 727.0, 727.0, 728.0, 728.0, 728.0, 728.0, 729.0, 728.0, 727.0, 726.0, 727.0, 727.0, 728.0, 728.0, 727.0, 728.0, 728.0, 728.0, 727.0, 727.0, 728.0, 728.0, 729.0, 728.0, 728.0, 728.0, 729.0, 728.0, 728.0, 728.0, 727.0, 729.0, 730.0, 730.0, 729.0, 728.0, 727.0, 727.0, 727.0, 728.0, 728.0, 729.0, 728.0, 728.0, 728.0, 727.0, 728.0, 728.0, 728.0, 728.0, 728.0, 728.0, 729.0, 729.0, 729.0, 729.0, 729.0, 728.0, 728.0, 728.0, 728.0, 728.0, 728.0, 728.0, 728.0, 728.0, 728.0, 728.0, 728.0, 729.0, 729.0, 728.0, 728.0, 728.0, 728.0, 728.0, 728.0, 729.0, 729.0, 729.0, 728.0, 728.0, 729.0, 729.0, 729.0, 728.0, 728.0, 729.0, 728.0, 729.0, 728.0, 728.0, 728.0, 728.0, 729.0, 729.0, 729.0, 730.0, 730.0, 729.0, 729.0, 729.0, 729.0, 728.0, 729.0, 729.0, 729.0, 729.0, 729.0, 729.0, 729.0, 728.0, 728.0, 728.0, 729.0, 729.0, 729.0, 728.0, 728.0, 728.0, 729.0, 728.0, 728.0, 727.0, 728.0, 729.0, 728.0, 729.0, 729.0, 729.0, 729.0, 729.0, 728.0, 729.0, 729.0, 729.0, 729.0, 730.0, 730.0, 729.0, 729.0, 729.0, 729.0, 729.0, 729.0, 729.0, 729.0, 729.0],
      "WindowWidth": [1600.0, 1591.0, 1588.0, 1587.0, 1587.0, 1587.0, 1587.0, 1588.0, 1589.0, 1587.0, 1584.0, 1586.0, 1588.0, 1587.0, 1589.0, 1588.0, 1586.0, 1586.0, 1589.0, 1588.0, 1588.0, 1589.0, 1590.0, 1589.0, 1586.0, 1584.0, 1586.0, 1587.0, 1588.0, 1587.0, 1584.0, 1588.0, 1589.0, 1588.0, 1586.0, 1587.0, 1588.0, 1589.0, 1590.0, 1589.0, 1588.0, 1587.0, 1590.0, 1589.0, 1588.0, 1587.0, 1586.0, 1590.0, 1593.0, 1593.0, 1590.0, 1589.0, 1586.0, 1584.0, 1586.0, 1588.0, 1589.0, 1591.0, 1588.0, 1588.0, 1588.0, 1586.0, 1589.0, 1589.0, 1589.0, 1589.0, 1587.0, 1587.0, 1591.0, 1590.0, 1591.0, 1590.0, 1592.0, 1588.0, 1587.0, 1587.0, 1589.0, 1588.0, 1587.0, 1588.0, 1588.0, 1589.0, 1589.0, 1587.0, 1589.0, 1591.0, 1591.0, 1588.0, 1588.0, 1588.0, 1588.0, 1588.0, 1589.0, 1592.0, 1591.0, 1590.0, 1589.0, 1589.0, 1591.0, 1591.0, 1590.0, 1590.0, 1589.0, 1592.0, 1590.0, 1590.0, 1589.0, 1589.0, 1587.0, 1589.0, 1590.0, 1591.0, 1592.0, 1594.0, 1593.0, 1591.0, 1590.0, 1590.0, 1591.0, 1589.0, 1590.0, 1591.0, 1590.0, 1590.0, 1590.0, 1590.0, 1590.0, 1588.0, 1589.0, 1588.0, 1591.0, 1589.0, 1590.0, 1588.0, 1589.0, 1589.0, 1591.0, 1589.0, 1589.0, 1586.0, 1587.0, 1590.0, 1589.0, 1591.0, 1590.0, 1592.0, 1591.0, 1590.0, 1589.0, 1591.0, 1591.0, 1590.0, 1590.0, 1593.0, 1593.0, 1592.0, 1592.0, 1591.0, 1592.0, 1590.0, 1590.0, 1590.0, 1592.0, 1591.0]
    },
    "slices": {}
  }
}