{
  "AcquisitionMatrixPE": 64,
  "AcquisitionNumber": 1,
  "AcquisitionTime": "11:24:31.970000",
  "BandwidthPerPixelPhaseEncode": 33.967,
  "BaseResolution": 64,
  "CoilCombinationMethod": "Sum of Squares",
  "CoilString": "C:HEA;HEP",
  "ConversionSoftware": "dcm2niix",
  "ConversionSoftwareVersion": "v1.0.20220720",
  "DerivedVendorReportedEchoSpacing": 0.000460005,
  "DeviceSerialNumber": "35193",
  "DwellTime": 3.1e-06,
  "EchoTime": 0.03,
  "EffectiveEchoSpacing": 0.000460005,
  "FlipAngle": 90,
  "HeudiconvVersion": "1.1.6",
  "ImageOrientationPatientDICOM": [0.999781, -0.0209424, 0, 0.0209424, 0.999781, 0],
  "ImageOrientationText": "Tra",
  "ImageType": [
    "ORIGINAL",
    "PRIMARY",
    "M",
    "ND",
    "MOSAIC"
],
  "ImagingFrequency": 123.254,
  "InPlanePhaseEncodingDirectionDICOM": "COL",
  "InstitutionAddress": "Xinjiekouwai Street No 19,Beijing,Haidian District,CN,100875",
  "InstitutionName": "Beijing Normal Universtiy/2773C4/",
  "InstitutionalDepartmentName": "Department",
  "MRAcquisitionType": "2D",
  "MagneticFieldStrength": 3,
  "Manufacturer": "Siemens",
  "ManufacturersModelName": "TrioTim",
  "MatrixCoilMode": "SENSE",
  "Modality": "MR",
  "NonlinearGradientCorrection": false,
  "PartialFourier": 1,
  "PatientPosition": "HFS",
  "PercentPhaseFOV": 100,
  "PercentSampling": 100,
  "PhaseEncodingDirection": "j-",
  "PhaseEncodingSteps": 64,
  "PhaseResolution": 1,
  "PixelBandwidth": 2520,
  "ProcedureStepDescription": "BNU_cst_2015^Guo.TaoMei",
  "ProtocolName": "ge_func_3x3x4_164",
  "PulseSequenceDetails": "%SiemensSeq%\\ep2d_bold",
  "ReceiveCoilName": "HeadMatrix",
  "ReconMatrixPE": 64,
  "RepetitionTime": 2,
  "SAR": 0.129388,
  "ScanOptions": "FS",
  "ScanningSequence": "EP",
  "SequenceName": "*epfid2d1_64",
  "SequenceVariant": "SK",
  "SeriesDescription": "ge_func_3x3x4_164",
  "SeriesNumber": 3,
  "ShimSetting": [-4539, -19437, -9868, 1074, -272, -410, 179, -55],
  "SliceThickness": 4,
  "SliceTiming": [0, 1.035, 0.0625, 1.095, 0.1225, 1.1575, 0.1825, 1.2175, 0.245, 1.2775, 0.305, 1.34, 0.365, 1.4, 0.4275, 1.46, 0.4875, 1.5225, 0.5475, 1.5825, 0.61, 1.6425, 0.67, 1.705, 0.73, 1.765, 0.7925, 1.825, 0.8525, 1.8875, 0.9125, 1.9475, 0.975],
  "SoftwareVersions": "syngo MR B17",
  "SpacingBetweenSlices": 4.6,
  "StationName": "MRC35193",
  "TaskName": "LanguageControl",
  "TotalReadoutTime": 0.0289803,
  "TxRefAmp": 337.657,
  "dcmmeta_affine": [
    [-3.124314546585083, 0.0654449388384819, 0.0, 95.92517852783203],
    [0.0654449388384819, 3.124314546585083, 0.0, -89.50221252441406],
    [0.0, 0.0, 4.599999904632568, -58.75662612915039],
    [0.0, 0.0, 0.0, 1.0]
],
  "dcmmeta_reorient_transform": [
    [0.0, -1.0, 0.0, 63.0],
    [1.0, 0.0, 0.0, 0.0],
    [0.0, 0.0, 1.0, 0.0],
    [0.0, 0.0, 0.0, 1.0]
],
  "dcmmeta_shape": [64, 64, 33, 164],
  "dcmmeta_slice_dim": 2,
  "dcmmeta_version": 0.6,
  "global": {
    "const": {
      "AcquisitionMatrix": [64, 0, 0, 64],
      "AngioFlag": "N",
      "BitsAllocated": 16,
      "BitsStored": 12,
      "Columns": 384,
      "EchoNumbers": 1,
      "EchoTime": 30.0,
      "EchoTrainLength": 1,
      "FlipAngle": 90.0,
      "HighBit": 11,
      "ImageOrientationPatient": [0.99978068431574, -0.0209423797393, 0.0, 0.02094237973925, 0.99978068431574, 0.0],
      "ImagePositionPatient": [-610.40974194404, -596.74876540733, -58.75662612915],
      "ImageType": [
        "ORIGINAL",
        "PRIMARY",
        "M",
        "ND",
        "MOSAIC"
],
      "ImagedNucleus": "1H",
      "ImagingFrequency": 123.253684,
      "InPlanePhaseEncodingDirection": "COL",
      "MRAcquisitionType": "2D",
      "MagneticFieldStrength": 3.0,
      "Manufacturer": "SIEMENS",
      "ManufacturerModelName": "TrioTim",
      "Modality": "MR",
      "NumberOfAverages": 1.0,
      "NumberOfPhaseEncodingSteps": 64,
      "PercentPhaseFieldOfView": 100.0,
      "PercentSampling": 100.0,
      "PerformedProcedureStepStartTime": "111554.546000",
      "PhotometricInterpretation": "MONOCHROME2",
      "PixelBandwidth": 2520.0,
      "PixelRepresentation": 0,
      "PixelSpacing": [3.125, 3.125],
      "ProtocolName": "ge_func_3x3x4_164",
      "RepetitionTime": 2000.0,
      "Rows": 384,
      "SAR": 0.1293883005541,
      "SamplesPerPixel": 1,
      "ScanOptions": "FS",
      "ScanningSequence": "EP",
      "SequenceName": "*epfid2d1_64",
      "SequenceVariant": "SK",
      "SeriesDescription": "ge_func_3x3x4_164",
      "SeriesNumber": 3,
      "SeriesTime": "112524.250000",
      "SliceLocation": -58.75662612915,
      "SliceThickness": 4.0,
      "SmallestImagePixelValue": 0,
      "SoftwareVersions": "syngo MR B17",
      "SpacingBetweenSlices": 4.6000000238419,
      "SpecificCharacterSet": "ISO_IR 100",
      "StudyID": "1",
      "StudyTime": "111554.500000",
      "TransmitCoilName": "Body",
      "VariableFlipAngleFlag": "N",
      "WindowCenterWidthExplanation": "Algo1",
      "dBdt": 0.0},
    "slices": {}
  },
  "time": {
    "samples": {
      "AcquisitionNumber": [1, 2, 3, 4, 5, 6, 7, 8, 9, 10, 11, 12, 13, 14, 15, 16, 17, 18, 19, 20, 21, 22, 23, 24, 25, 26, 27, 28, 29, 30, 31, 32, 33, 34, 35, 36, 37, 38, 39, 40, 41, 42, 43, 44, 45, 46, 47, 48, 49, 50, 51, 52, 53, 54, 55, 56, 57, 58, 59, 60, 61, 62, 63, 64, 65, 66, 67, 68, 69, 70, 71, 72, 73, 74, 75, 76, 77, 78, 79, 80, 81, 82, 83, 84, 85, 86, 87, 88, 89, 90, 91, 92, 93, 94, 95, 96, 97, 98, 99, 100, 101, 102, 103, 104, 105, 106, 107, 108, 109, 110, 111, 112, 113, 114, 115, 116, 117, 118, 119, 120, 121, 122, 123, 124, 125, 126, 127, 128, 129, 130, 131, 132, 133, 134, 135, 136, 137, 138, 139, 140, 141, 142, 143, 144, 145, 146, 147, 148, 149, 150, 151, 152, 153, 154, 155, 156, 157, 158, 159, 160, 161, 162, 163, 164],
      "AcquisitionTime": ["112431.970000", "112433.980000", "112435.987500", "112437.995000", "112440.002500", "112442.010000", "112444.020000", "112446.027500", "112448.035000", "112450.042500", "112452.052500", "112454.060000", "112456.067500", "112458.075000", "112500.082500", "112502.092500", "112504.100000", "112506.107500", "112508.115000", "112510.122500", "112512.132500", "112514.140000", "112516.147500", "112518.155000", "112520.165000", "112522.172500", "112524.180000", "112526.187500", "112528.195000", "112530.205000", "112532.212500", "112534.220000", "112536.227500", "112538.235000", "112540.245000", "112542.252500", "112544.260000", "112546.267500", "112548.275000", "112550.285000", "112552.292500", "112554.300000", "112556.307500", "112558.317500", "112600.325000", "112602.332500", "112604.340000", "112606.347500", "112608.357500", "112610.365000", "112612.372500", "112614.380000", "112616.387500", "112618.397500", "112620.405000", "112622.412500", "112624.420000", "112626.430000", "112628.437500", "112630.445000", "112632.452500", "112634.460000", "112636.470000", "112638.477500", "112640.485000", "112642.492500", "112644.500000", "112646.510000", "112648.517500", "112650.525000", "112652.532500", "112654.542500", "112656.550000", "112658.557500", "112700.565000", "112702.572500", "112704.582500", "112706.590000", "112708.597500", "112710.605000", "112712.612500", "112714.622500", "112716.630000", "112718.637500", "112720.645000", "112722.655000", "112724.662500", "112726.670000", "112728.677500", "112730.685000", "112732.695000", "112734.702500", "112736.710000", "112738.717500", "112740.725000", "112742.735000", "112744.742500", "112746.750000", "112748.757500", "112750.765000", "112752.775000", "112754.782500", "112756.790000", "112758.797500", "112800.807500", "112802.815000", "112804.822500", "112806.830000", "112808.837500", "112810.847500", "112812.855000", "112814.862500", "112816.870000", "112818.877500", "112820.887500", "112822.895000", "112824.902500", "112826.910000", "112828.920000", "112830.927500", "112832.935000", "112834.942500", "112836.950000", "112838.960000", "112840.967500", "112842.975000", "112844.982500", "112846.990000", "112849.000000", "112851.007500", "112853.015000", "112855.022500", "112857.032500", "112859.040000", "112901.047500", "112903.055000", "112905.062500", "112907.072500", "112909.080000", "112911.087500", "112913.095000", "112915.102500", "112917.112500", "112919.120000", "112921.127500", "112923.135000", "112925.142500", "112927.152500", "112929.160000", "112931.167500", "112933.175000", "112935.185000", "112937.192500", "112939.200000", "112941.207500", "112943.215000", "112945.225000", "112947.232500", "112949.240000", "112951.247500", "112953.255000", "112955.265000", "112957.272500", "112959.280000"],
      "ContentTime": ["112524.250000", "112524.250000", "112524.250000", "112524.250000", "112524.265000", "112524.265000", "112524.265000", "112524.281000", "112524.281000", "112524.281000", "112524.281000", "112524.281000", "112524.281000", "112524.281000", "112524.296000", "112524.296000", "112524.296000", "112524.296000", "112524.296000", "112524.312000", "112524.312000", "112524.312000", "112524.312000", "112524.312000", "112524.328000", "112604.250000", "112604.250000", "112604.250000", "112604.250000", "112604.250000", "112604.265000", "112604.265000", "112604.265000", "112604.265000", "112604.265000", "112604.265000", "112604.265000", "112604.265000", "112604.265000", "112604.281000", "112604.281000", "112604.281000", "112604.281000", "112604.281000", "112604.281000", "112644.250000", "112644.250000", "112644.250000", "112644.250000", "112644.250000", "112644.250000", "112644.250000", "112644.250000", "112644.250000", "112644.265000", "112644.265000", "112644.265000", "112644.265000", "112644.265000", "112644.265000", "112644.265000", "112644.265000", "112644.281000", "112644.281000", "112644.281000", "112724.250000", "112724.250000", "112724.250000", "112724.250000", "112724.250000", "112724.265000", "112724.265000", "112724.265000", "112724.265000", "112724.265000", "112724.265000", "112724.265000", "112724.265000", "112724.281000", "112724.281000", "112724.281000", "112724.281000", "112724.281000", "112724.281000", "112724.281000", "112804.250000", "112804.250000", "112804.250000", "112804.250000", "112804.265000", "112804.265000", "112804.265000", "112804.265000", "112804.265000", "112804.265000", "112804.265000", "112804.281000", "112804.281000", "112804.281000", "112804.296000", "112804.296000", "112804.296000", "112804.296000", "112804.296000", "112804.296000", "112844.250000", "112844.250000", "112844.250000", "112844.250000", "112844.250000", "112844.250000", "112844.250000", "112844.250000", "112844.265000", "112844.265000", "112844.265000", "112844.265000", "112844.265000", "112844.265000", "112844.265000", "112844.265000", "112844.281000", "112844.281000", "112844.281000", "112844.281000", "112924.250000", "112924.250000", "112924.250000", "112924.250000", "112924.250000", "112924.250000", "112924.265000", "112924.265000", "112924.265000", "112924.265000", "112924.265000", "112924.281000", "112924.281000", "112924.281000", "112924.281000", "112924.281000", "112924.281000", "112924.281000", "112924.296000", "112924.296000", "113000.750000", "113000.750000", "113000.750000", "113000.765000", "113000.765000", "113000.765000", "113000.765000", "113000.765000", "113000.781000", "113000.781000", "113000.781000", "113000.781000", "113000.781000", "113000.781000", "113000.781000", "113000.781000", "113000.796000", "113000.796000", "113000.796000"],
      "InstanceCreationTime": ["112524.250000", "112524.250000", "112524.250000", "112524.250000", "112524.265000", "112524.265000", "112524.265000", "112524.281000", "112524.281000", "112524.281000", "112524.281000", "112524.281000", "112524.281000", "112524.281000", "112524.296000", "112524.296000", "112524.296000", "112524.296000", "112524.296000", "112524.312000", "112524.312000", "112524.312000", "112524.312000", "112524.312000", "112524.328000", "112604.250000", "112604.250000", "112604.250000", "112604.250000", "112604.250000", "112604.265000", "112604.265000", "112604.265000", "112604.265000", "112604.265000", "112604.265000", "112604.265000", "112604.265000", "112604.265000", "112604.281000", "112604.281000", "112604.281000", "112604.281000", "112604.281000", "112604.281000", "112644.250000", "112644.250000", "112644.250000", "112644.250000", "112644.250000", "112644.250000", "112644.250000", "112644.250000", "112644.250000", "112644.265000", "112644.265000", "112644.265000", "112644.265000", "112644.265000", "112644.265000", "112644.265000", "112644.265000", "112644.281000", "112644.281000", "112644.281000", "112724.250000", "112724.250000", "112724.250000", "112724.250000", "112724.250000", "112724.265000", "112724.265000", "112724.265000", "112724.265000", "112724.265000", "112724.265000", "112724.265000", "112724.265000", "112724.281000", "112724.281000", "112724.281000", "112724.281000", "112724.281000", "112724.281000", "112724.281000", "112804.250000", "112804.250000", "112804.250000", "112804.250000", "112804.265000", "112804.265000", "112804.265000", "112804.265000", "112804.265000", "112804.265000", "112804.265000", "112804.281000", "112804.281000", "112804.281000", "112804.296000", "112804.296000", "112804.296000", "112804.296000", "112804.296000", "112804.296000", "112844.250000", "112844.250000", "112844.250000", "112844.250000", "112844.250000", "112844.250000", "112844.250000", "112844.250000", "112844.265000", "112844.265000", "112844.265000", "112844.265000", "112844.265000", "112844.265000", "112844.265000", "112844.265000", "112844.281000", "112844.281000", "112844.281000", "112844.281000", "112924.250000", "112924.250000", "112924.250000", "112924.250000", "112924.250000", "112924.250000", "112924.265000", "112924.265000", "112924.265000", "112924.265000", "112924.265000", "112924.281000", "112924.281000", "112924.281000", "112924.281000", "112924.281000", "112924.281000", "112924.281000", "112924.296000", "112924.296000", "113000.750000", "113000.750000", "113000.750000", "113000.765000", "113000.765000", "113000.765000", "113000.765000", "113000.765000", "113000.781000", "113000.781000", "113000.781000", "113000.781000", "113000.781000", "113000.781000", "113000.781000", "113000.781000", "113000.796000", "113000.796000", "113000.796000"],
      "InstanceNumber": [1, 2, 3, 4, 5, 6, 7, 8, 9, 10, 11, 12, 13, 14, 15, 16, 17, 18, 19, 20, 21, 22, 23, 24, 25, 26, 27, 28, 29, 30, 31, 32, 33, 34, 35, 36, 37, 38, 39, 40, 41, 42, 43, 44, 45, 46, 47, 48, 49, 50, 51, 52, 53, 54, 55, 56, 57, 58, 59, 60, 61, 62, 63, 64, 65, 66, 67, 68, 69, 70, 71, 72, 73, 74, 75, 76, 77, 78, 79, 80, 81, 82, 83, 84, 85, 86, 87, 88, 89, 90, 91, 92, 93, 94, 95, 96, 97, 98, 99, 100, 101, 102, 103, 104, 105, 106, 107, 108, 109, 110, 111, 112, 113, 114, 115, 116, 117, 118, 119, 120, 121, 122, 123, 124, 125, 126, 127, 128, 129, 130, 131, 132, 133, 134, 135, 136, 137, 138, 139, 140, 141, 142, 143, 144, 145, 146, 147, 148, 149, 150, 151, 152, 153, 154, 155, 156, 157, 158, 159, 160, 161, 162, 163, 164],
      "LargestImagePixelValue": [1819, 1721, 1697, 1698, 1691, 1697, 1704, 1681, 1670, 1688, 1704, 1690, 1679, 1683, 1668, 1699, 1700, 1680, 1695, 1687, 1699, 1707, 1708, 1710, 1708, 1697, 1712, 1693, 1700, 1708, 1687, 1693, 1695, 1704, 1689, 1703, 1700, 1698, 1705, 1686, 1690, 1711, 1694, 1692, 1709, 1696, 1702, 1698, 1717, 1700, 1691, 1695, 1690, 1697, 1698, 1696, 1683, 1687, 1695, 1700, 1686, 1707, 1688, 1683, 1682, 1694, 1703, 1684, 1702, 1711, 1689, 1703, 1706, 1696, 1694, 1681, 1684, 1703, 1701, 1711, 1696, 1695, 1697, 1719, 1679, 1704, 1667, 1699, 1686, 1687, 1694, 1695, 1694, 1694, 1683, 1688, 1682, 1659, 1683, 1688, 1682, 1668, 1673, 1685, 1677, 1675, 1667, 1693, 1694, 1706, 1691, 1677, 1676, 1697, 1685, 1680, 1670, 1681, 1699, 1678, 1686, 1685, 1691, 1685, 1672, 1687, 1687, 1670, 1683, 1680, 1686, 1672, 1671, 1662, 1672, 1658, 1677, 1686, 1694, 1686, 1687, 1700, 1659, 1685, 1712, 1679, 1688, 1697, 1695, 1683, 1687, 1662, 1661, 1684, 1687, 1684, 1673, 1689, 1664, 1674, 1663, 1654, 1656, 1675],
      "WindowCenter": [728.0, 725.0, 725.0, 725.0, 725.0, 724.0, 724.0, 724.0, 724.0, 725.0, 725.0, 724.0, 724.0, 724.0, 725.0, 726.0, 725.0, 724.0, 724.0, 724.0, 724.0, 724.0, 725.0, 725.0, 725.0, 724.0, 724.0, 724.0, 724.0, 726.0, 725.0, 726.0, 726.0, 725.0, 725.0, 725.0, 726.0, 725.0, 725.0, 725.0, 725.0, 724.0, 726.0, 727.0, 726.0, 725.0, 725.0, 726.0, 726.0, 726.0, 726.0, 726.0, 725.0, 725.0, 724.0, 725.0, 725.0, 725.0, 725.0, 726.0, 728.0, 728.0, 727.0, 726.0, 726.0, 726.0, 726.0, 726.0, 727.0, 727.0, 727.0, 727.0, 727.0, 727.0, 726.0, 726.0, 726.0, 725.0, 725.0, 725.0, 726.0, 726.0, 727.0, 727.0, 726.0, 725.0, 725.0, 726.0, 726.0, 726.0, 725.0, 726.0, 726.0, 726.0, 726.0, 725.0, 725.0, 725.0, 726.0, 726.0, 726.0, 725.0, 726.0, 726.0, 726.0, 725.0, 725.0, 725.0, 726.0, 726.0, 726.0, 726.0, 725.0, 727.0, 728.0, 728.0, 727.0, 726.0, 726.0, 726.0, 727.0, 727.0, 727.0, 726.0, 727.0, 727.0, 726.0, 726.0, 726.0, 727.0, 726.0, 727.0, 727.0, 727.0, 725.0, 727.0, 728.0, 728.0, 727.0, 727.0, 727.0, 726.0, 726.0, 727.0, 728.0, 728.0, 727.0, 727.0, 728.0, 728.0, 727.0, 726.0, 726.0, 727.0, 727.0, 727.0, 727.0, 726.0, 726.0, 727.0, 727.0, 727.0, 728.0, 727.0],
      "WindowWidth": [1567.0, 1560.0, 1561.0, 1561.0, 1560.0, 1557.0, 1557.0, 1557.0, 1559.0, 1559.0, 1560.0, 1558.0, 1558.0, 1557.0, 1561.0, 1562.0, 1560.0, 1558.0, 1558.0, 1558.0, 1558.0, 1558.0, 1559.0, 1560.0, 1560.0, 1559.0, 1558.0, 1558.0, 1559.0, 1562.0, 1561.0, 1563.0, 1563.0, 1560.0, 1560.0, 1562.0, 1562.0, 1561.0, 1561.0, 1560.0, 1560.0, 1559.0, 1563.0, 1566.0, 1563.0, 1561.0, 1559.0, 1562.0, 1563.0, 1563.0, 1562.0, 1563.0, 1560.0, 1559.0, 1558.0, 1559.0, 1559.0, 1560.0, 1560.0, 1563.0, 1567.0, 1568.0, 1565.0, 1562.0, 1563.0, 1563.0, 1562.0, 1563.0, 1564.0, 1565.0, 1564.0, 1566.0, 1565.0, 1565.0, 1563.0, 1562.0, 1561.0, 1561.0, 1561.0, 1561.0, 1562.0, 1563.0, 1566.0, 1566.0, 1562.0, 1560.0, 1561.0, 1562.0, 1563.0, 1561.0, 1561.0, 1562.0, 1562.0, 1563.0, 1562.0, 1560.0, 1560.0, 1559.0, 1562.0, 1563.0, 1562.0, 1561.0, 1562.0, 1561.0, 1561.0, 1561.0, 1561.0, 1560.0, 1562.0, 1563.0, 1563.0, 1562.0, 1561.0, 1566.0, 1569.0, 1567.0, 1564.0, 1562.0, 1563.0, 1563.0, 1565.0, 1565.0, 1564.0, 1562.0, 1564.0, 1565.0, 1563.0, 1564.0, 1563.0, 1564.0, 1564.0, 1565.0, 1565.0, 1564.0, 1561.0, 1564.0, 1569.0, 1567.0, 1566.0, 1566.0, 1565.0, 1564.0, 1564.0, 1565.0, 1568.0, 1569.0, 1565.0, 1564.0, 1568.0, 1568.0, 1565.0, 1563.0, 1562.0, 1565.0, 1566.0, 1565.0, 1564.0, 1563.0, 1563.0, 1564.0, 1565.0, 1565.0, 1567.0, 1566.0]
    },
    "slices": {}
  }
}