{
  "AcquisitionMatrixPE": 64,
  "AcquisitionNumber": 1,
  "AcquisitionTime": "11:18:6.520000",
  "BandwidthPerPixelPhaseEncode": 33.967,
  "BaseResolution": 64,
  "CoilCombinationMethod": "Sum of Squares",
  "CoilString": "C:HEA;HEP",
  "ConversionSoftware": "dcm2niix",
  "ConversionSoftwareVersion": "v1.0.20220720",
  "DerivedVendorReportedEchoSpacing": 0.000460005,
  "DeviceSerialNumber": "35193",
  "DwellTime": 3.1e-06,
  "EchoTime": 0.03,
  "EffectiveEchoSpacing": 0.000460005,
  "FlipAngle": 90,
  "HeudiconvVersion": "1.1.6",
  "ImageOrientationPatientDICOM": [0.999781, -0.0209424, 0, 0.0209424, 0.999781, 0],
  "ImageOrientationText": "Tra",
  "ImageType": [
    "ORIGINAL",
    "PRIMARY",
    "M",
    "ND",
    "MOSAIC"
],
  "ImagingFrequency": 123.254,
  "InPlanePhaseEncodingDirectionDICOM": "COL",
  "InstitutionAddress": "Xinjiekouwai Street No 19,Beijing,Haidian District,CN,100875",
  "InstitutionName": "Beijing Normal Universtiy/2773C4/",
  "InstitutionalDepartmentName": "Department",
  "MRAcquisitionType": "2D",
  "MagneticFieldStrength": 3,
  "Manufacturer": "Siemens",
  "ManufacturersModelName": "TrioTim",
  "MatrixCoilMode": "SENSE",
  "Modality": "MR",
  "NonlinearGradientCorrection": false,
  "PartialFourier": 1,
  "PatientPosition": "HFS",
  "PercentPhaseFOV": 100,
  "PercentSampling": 100,
  "PhaseEncodingDirection": "j-",
  "PhaseEncodingSteps": 64,
  "PhaseResolution": 1,
  "PixelBandwidth": 2520,
  "ProcedureStepDescription": "BNU_cst_2015^Guo.TaoMei",
  "ProtocolName": "ge_func_3x3x4_164",
  "PulseSequenceDetails": "%SiemensSeq%\\ep2d_bold",
  "ReceiveCoilName": "HeadMatrix",
  "ReconMatrixPE": 64,
  "RepetitionTime": 2,
  "SAR": 0.129388,
  "ScanOptions": "FS",
  "ScanningSequence": "EP",
  "SequenceName": "*epfid2d1_64",
  "SequenceVariant": "SK",
  "SeriesDescription": "ge_func_3x3x4_164",
  "SeriesNumber": 2,
  "ShimSetting": [-4539, -19437, -9868, 1074, -272, -410, 179, -55],
  "SliceThickness": 4,
  "SliceTiming": [0, 1.0325, 0.06, 1.095, 0.12, 1.155, 0.1825, 1.215, 0.2425, 1.2775, 0.3025, 1.3375, 0.365, 1.3975, 0.425, 1.46, 0.485, 1.52, 0.5475, 1.58, 0.6075, 1.6425, 0.6675, 1.7025, 0.73, 1.7625, 0.79, 1.825, 0.85, 1.885, 0.9125, 1.945, 0.9725],
  "SoftwareVersions": "syngo MR B17",
  "SpacingBetweenSlices": 4.6,
  "StationName": "MRC35193",
  "TaskName": "LanguageControl",
  "TotalReadoutTime": 0.0289803,
  "TxRefAmp": 337.657,
  "dcmmeta_affine": [
    [-3.124314546585083, 0.0654449388384819, 0.0, 95.92517852783203],
    [0.0654449388384819, 3.124314546585083, 0.0, -89.50221252441406],
    [0.0, 0.0, 4.599999904632568, -58.75662612915039],
    [0.0, 0.0, 0.0, 1.0]
],
  "dcmmeta_reorient_transform": [
    [0.0, -1.0, 0.0, 63.0],
    [1.0, 0.0, 0.0, 0.0],
    [0.0, 0.0, 1.0, 0.0],
    [0.0, 0.0, 0.0, 1.0]
],
  "dcmmeta_shape": [64, 64, 33, 164],
  "dcmmeta_slice_dim": 2,
  "dcmmeta_version": 0.6,
  "global": {
    "const": {
      "AcquisitionMatrix": [64, 0, 0, 64],
      "AngioFlag": "N",
      "BitsAllocated": 16,
      "BitsStored": 12,
      "Columns": 384,
      "EchoNumbers": 1,
      "EchoTime": 30.0,
      "EchoTrainLength": 1,
      "FlipAngle": 90.0,
      "HighBit": 11,
      "ImageOrientationPatient": [0.99978068431574, -0.0209423797393, 0.0, 0.02094237973925, 0.99978068431574, 0.0],
      "ImagePositionPatient": [-610.40974194404, -596.74876540733, -58.75662612915],
      "ImageType": [
        "ORIGINAL",
        "PRIMARY",
        "M",
        "ND",
        "MOSAIC"
],
      "ImagedNucleus": "1H",
      "ImagingFrequency": 123.253682,
      "InPlanePhaseEncodingDirection": "COL",
      "MRAcquisitionType": "2D",
      "MagneticFieldStrength": 3.0,
      "Manufacturer": "SIEMENS",
      "ManufacturerModelName": "TrioTim",
      "Modality": "MR",
      "NumberOfAverages": 1.0,
      "NumberOfPhaseEncodingSteps": 64,
      "PercentPhaseFieldOfView": 100.0,
      "PercentSampling": 100.0,
      "PerformedProcedureStepStartTime": "111554.546000",
      "PhotometricInterpretation": "MONOCHROME2",
      "PixelBandwidth": 2520.0,
      "PixelRepresentation": 0,
      "PixelSpacing": [3.125, 3.125],
      "ProtocolName": "ge_func_3x3x4_164",
      "RepetitionTime": 2000.0,
      "Rows": 384,
      "SAR": 0.1293883005541,
      "SamplesPerPixel": 1,
      "ScanOptions": "FS",
      "ScanningSequence": "EP",
      "SequenceName": "*epfid2d1_64",
      "SequenceVariant": "SK",
      "SeriesDescription": "ge_func_3x3x4_164",
      "SeriesNumber": 2,
      "SeriesTime": "111850.468000",
      "SliceLocation": -58.75662612915,
      "SliceThickness": 4.0,
      "SmallestImagePixelValue": 0,
      "SoftwareVersions": "syngo MR B17",
      "SpacingBetweenSlices": 4.6000000238419,
      "SpecificCharacterSet": "ISO_IR 100",
      "StudyID": "1",
      "StudyTime": "111554.500000",
      "TransmitCoilName": "Body",
      "VariableFlipAngleFlag": "N",
      "WindowCenterWidthExplanation": "Algo1",
      "dBdt": 0.0},
    "slices": {}
  },
  "time": {
    "samples": {
      "AcquisitionNumber": [1, 2, 3, 4, 5, 6, 7, 8, 9, 10, 11, 12, 13, 14, 15, 16, 17, 18, 19, 20, 21, 22, 23, 24, 25, 26, 27, 28, 29, 30, 31, 32, 33, 34, 35, 36, 37, 38, 39, 40, 41, 42, 43, 44, 45, 46, 47, 48, 49, 50, 51, 52, 53, 54, 55, 56, 57, 58, 59, 60, 61, 62, 63, 64, 65, 66, 67, 68, 69, 70, 71, 72, 73, 74, 75, 76, 77, 78, 79, 80, 81, 82, 83, 84, 85, 86, 87, 88, 89, 90, 91, 92, 93, 94, 95, 96, 97, 98, 99, 100, 101, 102, 103, 104, 105, 106, 107, 108, 109, 110, 111, 112, 113, 114, 115, 116, 117, 118, 119, 120, 121, 122, 123, 124, 125, 126, 127, 128, 129, 130, 131, 132, 133, 134, 135, 136, 137, 138, 139, 140, 141, 142, 143, 144, 145, 146, 147, 148, 149, 150, 151, 152, 153, 154, 155, 156, 157, 158, 159, 160, 161, 162, 163, 164],
      "AcquisitionTime": ["111806.520000", "111808.527500", "111810.535000", "111812.542500", "111814.550000", "111816.560000", "111818.567500", "111820.575000", "111822.582500", "111824.592500", "111826.600000", "111828.607500", "111830.615000", "111832.622500", "111834.632500", "111836.640000", "111838.647500", "111840.655000", "111842.662500", "111844.672500", "111846.680000", "111848.687500", "111850.695000", "111852.705000", "111854.712500", "111856.720000", "111858.727500", "111900.735000", "111902.745000", "111904.752500", "111906.760000", "111908.767500", "111910.775000", "111912.785000", "111914.792500", "111916.800000", "111918.807500", "111920.815000", "111922.825000", "111924.832500", "111926.840000", "111928.847500", "111930.857500", "111932.865000", "111934.872500", "111936.880000", "111938.887500", "111940.897500", "111942.905000", "111944.912500", "111946.920000", "111948.927500", "111950.937500", "111952.945000", "111954.952500", "111956.960000", "111958.970000", "112000.977500", "112002.985000", "112004.992500", "112007.000000", "112009.010000", "112011.017500", "112013.025000", "112015.032500", "112017.040000", "112019.050000", "112021.057500", "112023.065000", "112025.072500", "112027.082500", "112029.090000", "112031.097500", "112033.105000", "112035.112500", "112037.122500", "112039.130000", "112041.137500", "112043.145000", "112045.152500", "112047.162500", "112049.170000", "112051.177500", "112053.185000", "112055.192500", "112057.202500", "112059.210000", "112101.217500", "112103.225000", "112105.235000", "112107.242500", "112109.250000", "112111.257500", "112113.265000", "112115.275000", "112117.282500", "112119.290000", "112121.297500", "112123.305000", "112125.315000", "112127.322500", "112129.330000", "112131.337500", "112133.347500", "112135.355000", "112137.362500", "112139.370000", "112141.377500", "112143.387500", "112145.395000", "112147.402500", "112149.410000", "112151.417500", "112153.427500", "112155.435000", "112157.442500", "112159.450000", "112201.460000", "112203.467500", "112205.475000", "112207.482500", "112209.490000", "112211.500000", "112213.507500", "112215.515000", "112217.522500", "112219.530000", "112221.540000", "112223.547500", "112225.555000", "112227.562500", "112229.570000", "112231.580000", "112233.587500", "112235.595000", "112237.602500", "112239.612500", "112241.620000", "112243.627500", "112245.635000", "112247.642500", "112249.652500", "112251.660000", "112253.667500", "112255.675000", "112257.682500", "112259.692500", "112301.700000", "112303.707500", "112305.715000", "112307.725000", "112309.732500", "112311.740000", "112313.747500", "112315.755000", "112317.765000", "112319.772500", "112321.780000", "112323.787500", "112325.795000", "112327.805000", "112329.812500", "112331.820000", "112333.827500"],
      "ContentTime": ["111850.468000", "111850.468000", "111850.468000", "111850.468000", "111850.468000", "111850.484000", "111850.484000", "111850.500000", "111850.500000", "111850.500000", "111850.500000", "111850.500000", "111850.500000", "111850.500000", "111850.500000", "111850.515000", "111850.515000", "111850.515000", "111850.515000", "111850.515000", "111850.515000", "111910.468000", "111910.468000", "111910.468000", "111910.468000", "111910.468000", "111910.468000", "111910.484000", "111910.484000", "111910.484000", "111910.484000", "111950.468000", "111950.468000", "111950.468000", "111950.468000", "111950.468000", "111950.468000", "111950.468000", "111950.468000", "111950.484000", "111950.484000", "111950.484000", "111950.484000", "111950.484000", "111950.484000", "111950.484000", "111950.484000", "111950.500000", "111950.500000", "111950.500000", "111950.500000", "112030.468000", "112030.468000", "112030.468000", "112030.468000", "112030.468000", "112030.468000", "112030.468000", "112030.484000", "112030.484000", "112030.484000", "112030.484000", "112030.484000", "112030.484000", "112030.484000", "112030.484000", "112030.500000", "112030.500000", "112030.500000", "112030.500000", "112030.500000", "112110.468000", "112110.468000", "112110.468000", "112110.468000", "112110.468000", "112110.468000", "112110.468000", "112110.468000", "112110.484000", "112110.484000", "112110.484000", "112110.484000", "112110.484000", "112110.484000", "112110.484000", "112110.484000", "112110.500000", "112110.500000", "112110.500000", "112110.500000", "112150.468000", "112150.468000", "112150.468000", "112150.468000", "112150.468000", "112150.468000", "112150.468000", "112150.468000", "112150.484000", "112150.484000", "112150.484000", "112150.484000", "112150.484000", "112150.484000", "112150.484000", "112150.484000", "112150.500000", "112150.500000", "112150.500000", "112150.500000", "112230.468000", "112230.468000", "112230.468000", "112230.468000", "112230.468000", "112230.468000", "112230.468000", "112230.468000", "112230.484000", "112230.484000", "112230.484000", "112230.484000", "112230.484000", "112230.484000", "112230.484000", "112230.500000", "112230.500000", "112230.500000", "112230.500000", "112230.500000", "112310.468000", "112310.468000", "112310.468000", "112310.468000", "112310.468000", "112310.484000", "112310.484000", "112310.484000", "112310.484000", "112310.484000", "112310.500000", "112310.500000", "112310.500000", "112310.500000", "112310.515000", "112310.515000", "112310.515000", "112310.515000", "112310.515000", "112310.515000", "112335.421000", "112335.421000", "112335.421000", "112335.421000", "112335.421000", "112335.437000", "112335.437000", "112335.437000", "112335.437000", "112335.437000", "112335.437000", "112335.437000", "112335.453000"],
      "InstanceCreationTime": ["111850.468000", "111850.468000", "111850.468000", "111850.468000", "111850.468000", "111850.484000", "111850.484000", "111850.500000", "111850.500000", "111850.500000", "111850.500000", "111850.500000", "111850.500000", "111850.500000", "111850.500000", "111850.515000", "111850.515000", "111850.515000", "111850.515000", "111850.515000", "111850.515000", "111910.468000", "111910.468000", "111910.468000", "111910.468000", "111910.468000", "111910.468000", "111910.484000", "111910.484000", "111910.484000", "111910.484000", "111950.468000", "111950.468000", "111950.468000", "111950.468000", "111950.468000", "111950.468000", "111950.468000", "111950.468000", "111950.484000", "111950.484000", "111950.484000", "111950.484000", "111950.484000", "111950.484000", "111950.484000", "111950.484000", "111950.500000", "111950.500000", "111950.500000", "111950.500000", "112030.468000", "112030.468000", "112030.468000", "112030.468000", "112030.468000", "112030.468000", "112030.468000", "112030.484000", "112030.484000", "112030.484000", "112030.484000", "112030.484000", "112030.484000", "112030.484000", "112030.484000", "112030.500000", "112030.500000", "112030.500000", "112030.500000", "112030.500000", "112110.468000", "112110.468000", "112110.468000", "112110.468000", "112110.468000", "112110.468000", "112110.468000", "112110.468000", "112110.484000", "112110.484000", "112110.484000", "112110.484000", "112110.484000", "112110.484000", "112110.484000", "112110.484000", "112110.500000", "112110.500000", "112110.500000", "112110.500000", "112150.468000", "112150.468000", "112150.468000", "112150.468000", "112150.468000", "112150.468000", "112150.468000", "112150.468000", "112150.484000", "112150.484000", "112150.484000", "112150.484000", "112150.484000", "112150.484000", "112150.484000", "112150.484000", "112150.500000", "112150.500000", "112150.500000", "112150.500000", "112230.468000", "112230.468000", "112230.468000", "112230.468000", "112230.468000", "112230.468000", "112230.468000", "112230.468000", "112230.484000", "112230.484000", "112230.484000", "112230.484000", "112230.484000", "112230.484000", "112230.484000", "112230.500000", "112230.500000", "112230.500000", "112230.500000", "112230.500000", "112310.468000", "112310.468000", "112310.468000", "112310.468000", "112310.468000", "112310.484000", "112310.484000", "112310.484000", "112310.484000", "112310.484000", "112310.500000", "112310.500000", "112310.500000", "112310.500000", "112310.515000", "112310.515000", "112310.515000", "112310.515000", "112310.515000", "112310.515000", "112335.421000", "112335.421000", "112335.421000", "112335.421000", "112335.421000", "112335.437000", "112335.437000", "112335.437000", "112335.437000", "112335.437000", "112335.437000", "112335.437000", "112335.453000"],
      "InstanceNumber": [1, 2, 3, 4, 5, 6, 7, 8, 9, 10, 11, 12, 13, 14, 15, 16, 17, 18, 19, 20, 21, 22, 23, 24, 25, 26, 27, 28, 29, 30, 31, 32, 33, 34, 35, 36, 37, 38, 39, 40, 41, 42, 43, 44, 45, 46, 47, 48, 49, 50, 51, 52, 53, 54, 55, 56, 57, 58, 59, 60, 61, 62, 63, 64, 65, 66, 67, 68, 69, 70, 71, 72, 73, 74, 75, 76, 77, 78, 79, 80, 81, 82, 83, 84, 85, 86, 87, 88, 89, 90, 91, 92, 93, 94, 95, 96, 97, 98, 99, 100, 101, 102, 103, 104, 105, 106, 107, 108, 109, 110, 111, 112, 113, 114, 115, 116, 117, 118, 119, 120, 121, 122, 123, 124, 125, 126, 127, 128, 129, 130, 131, 132, 133, 134, 135, 136, 137, 138, 139, 140, 141, 142, 143, 144, 145, 146, 147, 148, 149, 150, 151, 152, 153, 154, 155, 156, 157, 158, 159, 160, 161, 162, 163, 164],
      "LargestImagePixelValue": [1749, 1679, 1649, 1661, 1653, 1631, 1629, 1642, 1638, 1641, 1618, 1630, 1611, 1639, 1642, 1651, 1648, 1655, 1652, 1644, 1634, 1655, 1650, 1653, 1657, 1654, 1644, 1642, 1654, 1654, 1642, 1667, 1671, 1635, 1638, 1665, 1653, 1636, 1666, 1639, 1654, 1630, 1649, 1636, 1655, 1650, 1647, 1643, 1645, 1662, 1647, 1639, 1647, 1643, 1675, 1666, 1655, 1659, 1668, 1669, 1662, 1666, 1667, 1650, 1643, 1643, 1645, 1660, 1659, 1663, 1654, 1656, 1663, 1658, 1643, 1643, 1651, 1670, 1652, 1650, 1641, 1683, 1654, 1673, 1669, 1649, 1671, 1656, 1658, 1664, 1657, 1661, 1653, 1650, 1659, 1651, 1651, 1664, 1650, 1657, 1671, 1656, 1651, 1664, 1659, 1669, 1661, 1658, 1656, 1636, 1652, 1651, 1659, 1662, 1662, 1667, 1659, 1650, 1645, 1661, 1665, 1654, 1670, 1651, 1672, 1665, 1675, 1659, 1651, 1659, 1683, 1662, 1659, 1662, 1657, 1665, 1654, 1666, 1672, 1671, 1663, 1662, 1662, 1669, 1670, 1667, 1660, 1677, 1685, 1688, 1683, 1691, 1681, 1693, 1673, 1678, 1673, 1700, 1687, 1678, 1667, 1676, 1684, 1669],
      "WindowCenter": [727.0, 725.0, 726.0, 726.0, 725.0, 724.0, 724.0, 724.0, 724.0, 723.0, 723.0, 724.0, 723.0, 724.0, 725.0, 725.0, 725.0, 725.0, 726.0, 726.0, 726.0, 726.0, 727.0, 727.0, 726.0, 726.0, 725.0, 725.0, 726.0, 726.0, 726.0, 727.0, 727.0, 725.0, 724.0, 725.0, 726.0, 726.0, 727.0, 726.0, 726.0, 725.0, 725.0, 725.0, 726.0, 726.0, 725.0, 725.0, 725.0, 725.0, 726.0, 726.0, 725.0, 726.0, 727.0, 727.0, 727.0, 726.0, 726.0, 727.0, 728.0, 728.0, 727.0, 726.0, 725.0, 725.0, 725.0, 725.0, 725.0, 725.0, 725.0, 725.0, 726.0, 725.0, 725.0, 725.0, 725.0, 726.0, 725.0, 726.0, 724.0, 725.0, 726.0, 727.0, 727.0, 725.0, 726.0, 726.0, 726.0, 726.0, 725.0, 726.0, 726.0, 726.0, 725.0, 725.0, 725.0, 725.0, 725.0, 725.0, 725.0, 725.0, 724.0, 724.0, 725.0, 725.0, 725.0, 725.0, 724.0, 725.0, 724.0, 724.0, 726.0, 725.0, 724.0, 724.0, 725.0, 725.0, 725.0, 725.0, 724.0, 725.0, 726.0, 727.0, 727.0, 725.0, 725.0, 726.0, 726.0, 725.0, 725.0, 725.0, 725.0, 725.0, 725.0, 726.0, 726.0, 726.0, 726.0, 725.0, 725.0, 725.0, 725.0, 726.0, 727.0, 727.0, 725.0, 725.0, 726.0, 725.0, 725.0, 726.0, 726.0, 726.0, 726.0, 726.0, 726.0, 725.0, 726.0, 727.0, 726.0, 726.0, 726.0, 726.0],
      "WindowWidth": [1568.0, 1562.0, 1564.0, 1563.0, 1560.0, 1558.0, 1560.0, 1560.0, 1559.0, 1555.0, 1555.0, 1557.0, 1557.0, 1559.0, 1560.0, 1561.0, 1560.0, 1561.0, 1564.0, 1562.0, 1562.0, 1564.0, 1566.0, 1566.0, 1564.0, 1562.0, 1561.0, 1560.0, 1562.0, 1562.0, 1564.0, 1566.0, 1566.0, 1561.0, 1559.0, 1560.0, 1563.0, 1564.0, 1565.0, 1563.0, 1562.0, 1560.0, 1560.0, 1562.0, 1564.0, 1562.0, 1560.0, 1560.0, 1559.0, 1561.0, 1562.0, 1562.0, 1561.0, 1562.0, 1566.0, 1566.0, 1565.0, 1563.0, 1563.0, 1565.0, 1567.0, 1567.0, 1565.0, 1562.0, 1559.0, 1560.0, 1560.0, 1560.0, 1560.0, 1560.0, 1561.0, 1560.0, 1562.0, 1561.0, 1560.0, 1560.0, 1560.0, 1562.0, 1561.0, 1562.0, 1558.0, 1560.0, 1563.0, 1565.0, 1564.0, 1559.0, 1562.0, 1563.0, 1563.0, 1562.0, 1559.0, 1562.0, 1563.0, 1562.0, 1561.0, 1560.0, 1560.0, 1561.0, 1559.0, 1560.0, 1561.0, 1560.0, 1558.0, 1559.0, 1561.0, 1560.0, 1561.0, 1559.0, 1558.0, 1558.0, 1556.0, 1558.0, 1561.0, 1561.0, 1558.0, 1559.0, 1559.0, 1559.0, 1559.0, 1559.0, 1558.0, 1560.0, 1564.0, 1564.0, 1564.0, 1560.0, 1560.0, 1561.0, 1563.0, 1561.0, 1560.0, 1560.0, 1559.0, 1559.0, 1560.0, 1563.0, 1561.0, 1562.0, 1562.0, 1560.0, 1559.0, 1559.0, 1559.0, 1562.0, 1566.0, 1564.0, 1558.0, 1559.0, 1561.0, 1561.0, 1560.0, 1562.0, 1561.0, 1564.0, 1562.0, 1562.0, 1561.0, 1560.0, 1563.0, 1565.0, 1564.0, 1563.0, 1562.0, 1562.0]
    },
    "slices": {}
  }
}