{
  "AcquisitionMatrixPE": 64,
  "AcquisitionNumber": 1,
  "AcquisitionTime": "14:17:44.257500",
  "BandwidthPerPixelPhaseEncode": 33.967,
  "BaseResolution": 64,
  "CoilCombinationMethod": "Sum of Squares",
  "CoilString": "C:HEA;HEP",
  "ConversionSoftware": "dcm2niix",
  "ConversionSoftwareVersion": "v1.0.20220720",
  "DerivedVendorReportedEchoSpacing": 0.000460005,
  "DeviceSerialNumber": "35193",
  "DwellTime": 3.1e-06,
  "EchoTime": 0.03,
  "EffectiveEchoSpacing": 0.000460005,
  "FlipAngle": 90,
  "HeudiconvVersion": "1.1.6",
  "ImageOrientationPatientDICOM": [1, 0, 0, 0, 1, 0],
  "ImageOrientationText": "Tra",
  "ImageType": [
    "ORIGINAL",
    "PRIMARY",
    "M",
    "ND",
    "MOSAIC"
],
  "ImagingFrequency": 123.254,
  "InPlanePhaseEncodingDirectionDICOM": "COL",
  "InstitutionAddress": "Xinjiekouwai Street No 19,Beijing,Haidian District,CN,100875",
  "InstitutionName": "BNU MRI Center",
  "InstitutionalDepartmentName": "Department",
  "MRAcquisitionType": "2D",
  "MagneticFieldStrength": 3,
  "Manufacturer": "Siemens",
  "ManufacturersModelName": "TrioTim",
  "MatrixCoilMode": "SENSE",
  "Modality": "MR",
  "NonlinearGradientCorrection": false,
  "PartialFourier": 1,
  "PatientPosition": "HFS",
  "PercentPhaseFOV": 100,
  "PercentSampling": 100,
  "PhaseEncodingDirection": "j-",
  "PhaseEncodingSteps": 64,
  "PhaseResolution": 1,
  "PixelBandwidth": 2520,
  "ProcedureStepDescription": "BNU_cst_2015^Guo.TaoMei",
  "ProtocolName": "ge_func_3x3x4_164",
  "PulseSequenceDetails": "%SiemensSeq%\\ep2d_bold",
  "ReceiveCoilName": "HeadMatrix",
  "ReconMatrixPE": 64,
  "RepetitionTime": 2,
  "SAR": 0.17628,
  "ScanOptions": "FS",
  "ScanningSequence": "EP",
  "SequenceName": "*epfid2d1_64",
  "SequenceVariant": "SK",
  "SeriesDescription": "ge_func_3x3x4_164",
  "SeriesNumber": 5,
  "ShimSetting": [-4552, -19375, -9743, 1066, -175, -707, 24, -65],
  "SliceThickness": 4,
  "SliceTiming": [0, 1.0325, 0.06, 1.095, 0.12, 1.155, 0.1825, 1.215, 0.2425, 1.2775, 0.3025, 1.3375, 0.365, 1.3975, 0.425, 1.46, 0.485, 1.52, 0.5475, 1.58, 0.6075, 1.6425, 0.6675, 1.7025, 0.73, 1.7625, 0.79, 1.825, 0.85, 1.885, 0.9125, 1.945, 0.9725],
  "SoftwareVersions": "syngo MR B17",
  "SpacingBetweenSlices": 4.6,
  "StationName": "MRC35193",
  "TaskName": "LanguageControl",
  "TotalReadoutTime": 0.0289803,
  "TxRefAmp": 357.611,
  "dcmmeta_affine": [
    [-3.125, 0.0, 0.0, 103.37349700927734],
    [0.0, 3.125, 0.0, -88.77861785888672],
    [0.0, 0.0, 4.599999904632568, -66.85301208496094],
    [0.0, 0.0, 0.0, 1.0]
],
  "dcmmeta_reorient_transform": [
    [0.0, -1.0, 0.0, 63.0],
    [1.0, 0.0, 0.0, 0.0],
    [0.0, 0.0, 1.0, 0.0],
    [0.0, 0.0, 0.0, 1.0]
],
  "dcmmeta_shape": [64, 64, 33, 164],
  "dcmmeta_slice_dim": 2,
  "dcmmeta_version": 0.6,
  "global": {
    "const": {
      "AcquisitionMatrix": [64, 0, 0, 64],
      "AngioFlag": "N",
      "BitsAllocated": 16,
      "BitsStored": 12,
      "Columns": 384,
      "EchoNumbers": 1,
      "EchoTime": 30.0,
      "EchoTrainLength": 1,
      "FlipAngle": 90.0,
      "HighBit": 11,
      "ImageOrientationPatient": [1.0, 0.0, 0.0, 0.0, 1.0, 0.0],
      "ImagePositionPatient": [-603.37349390984, -608.09638595581, -66.853012084961],
      "ImageType": [
        "ORIGINAL",
        "PRIMARY",
        "M",
        "ND",
        "MOSAIC"
],
      "ImagedNucleus": "1H",
      "ImagingFrequency": 123.253944,
      "InPlanePhaseEncodingDirection": "COL",
      "MRAcquisitionType": "2D",
      "MagneticFieldStrength": 3.0,
      "Manufacturer": "SIEMENS",
      "ManufacturerModelName": "TrioTim",
      "Modality": "MR",
      "NumberOfAverages": 1.0,
      "NumberOfPhaseEncodingSteps": 64,
      "PercentPhaseFieldOfView": 100.0,
      "PercentSampling": 100.0,
      "PerformedProcedureStepStartTime": "135545.062000",
      "PhotometricInterpretation": "MONOCHROME2",
      "PixelBandwidth": 2520.0,
      "PixelRepresentation": 0,
      "PixelSpacing": [3.125, 3.125],
      "ProtocolName": "ge_func_3x3x4_164",
      "RepetitionTime": 2000.0,
      "Rows": 384,
      "SAR": 0.17627963935624,
      "SamplesPerPixel": 1,
      "ScanOptions": "FS",
      "ScanningSequence": "EP",
      "SequenceName": "*epfid2d1_64",
      "SequenceVariant": "SK",
      "SeriesDescription": "ge_func_3x3x4_164",
      "SeriesNumber": 5,
      "SeriesTime": "141830.281000",
      "SliceLocation": -66.853012084961,
      "SliceThickness": 4.0,
      "SmallestImagePixelValue": 0,
      "SoftwareVersions": "syngo MR B17",
      "SpacingBetweenSlices": 4.5999999046326,
      "SpecificCharacterSet": "ISO_IR 100",
      "StudyID": "1",
      "StudyTime": "135544.984000",
      "TransmitCoilName": "Body",
      "VariableFlipAngleFlag": "N",
      "WindowCenterWidthExplanation": "Algo1",
      "dBdt": 0.0},
    "slices": {}
  },
  "time": {
    "samples": {
      "AcquisitionNumber": [1, 2, 3, 4, 5, 6, 7, 8, 9, 10, 11, 12, 13, 14, 15, 16, 17, 18, 19, 20, 21, 22, 23, 24, 25, 26, 27, 28, 29, 30, 31, 32, 33, 34, 35, 36, 37, 38, 39, 40, 41, 42, 43, 44, 45, 46, 47, 48, 49, 50, 51, 52, 53, 54, 55, 56, 57, 58, 59, 60, 61, 62, 63, 64, 65, 66, 67, 68, 69, 70, 71, 72, 73, 74, 75, 76, 77, 78, 79, 80, 81, 82, 83, 84, 85, 86, 87, 88, 89, 90, 91, 92, 93, 94, 95, 96, 97, 98, 99, 100, 101, 102, 103, 104, 105, 106, 107, 108, 109, 110, 111, 112, 113, 114, 115, 116, 117, 118, 119, 120, 121, 122, 123, 124, 125, 126, 127, 128, 129, 130, 131, 132, 133, 134, 135, 136, 137, 138, 139, 140, 141, 142, 143, 144, 145, 146, 147, 148, 149, 150, 151, 152, 153, 154, 155, 156, 157, 158, 159, 160, 161, 162, 163, 164],
      "AcquisitionTime": ["141744.257500", "141746.265000", "141748.272500", "141750.280000", "141752.287500", "141754.297500", "141756.305000", "141758.312500", "141800.320000", "141802.327500", "141804.337500", "141806.345000", "141808.352500", "141810.360000", "141812.370000", "141814.377500", "141816.385000", "141818.392500", "141820.400000", "141822.410000", "141824.417500", "141826.425000", "141828.432500", "141830.440000", "141832.450000", "141834.457500", "141836.465000", "141838.472500", "141840.482500", "141842.490000", "141844.497500", "141846.505000", "141848.512500", "141850.522500", "141852.530000", "141854.537500", "141856.545000", "141858.552500", "141900.562500", "141902.570000", "141904.577500", "141906.585000", "141908.592500", "141910.602500", "141912.610000", "141914.617500", "141916.625000", "141918.635000", "141920.642500", "141922.650000", "141924.657500", "141926.665000", "141928.675000", "141930.682500", "141932.690000", "141934.697500", "141936.705000", "141938.715000", "141940.722500", "141942.730000", "141944.737500", "141946.747500", "141948.755000", "141950.762500", "141952.770000", "141954.777500", "141956.787500", "141958.795000", "142000.802500", "142002.810000", "142004.817500", "142006.827500", "142008.835000", "142010.842500", "142012.850000", "142014.860000", "142016.867500", "142018.875000", "142020.882500", "142022.890000", "142024.900000", "142026.907500", "142028.915000", "142030.922500", "142032.930000", "142034.940000", "142036.947500", "142038.955000", "142040.962500", "142042.970000", "142044.980000", "142046.987500", "142048.995000", "142051.002500", "142053.012500", "142055.020000", "142057.027500", "142059.035000", "142101.042500", "142103.052500", "142105.060000", "142107.067500", "142109.075000", "142111.082500", "142113.092500", "142115.100000", "142117.107500", "142119.115000", "142121.125000", "142123.132500", "142125.140000", "142127.147500", "142129.155000", "142131.165000", "142133.172500", "142135.180000", "142137.187500", "142139.195000", "142141.205000", "142143.212500", "142145.220000", "142147.227500", "142149.237500", "142151.245000", "142153.252500", "142155.260000", "142157.267500", "142159.277500", "142201.285000", "142203.292500", "142205.300000", "142207.307500", "142209.317500", "142211.325000", "142213.332500", "142215.340000", "142217.347500", "142219.357500", "142221.365000", "142223.372500", "142225.380000", "142227.390000", "142229.397500", "142231.405000", "142233.412500", "142235.420000", "142237.430000", "142239.437500", "142241.445000", "142243.452500", "142245.460000", "142247.470000", "142249.477500", "142251.485000", "142253.492500", "142255.502500", "142257.510000", "142259.517500", "142301.525000", "142303.532500", "142305.542500", "142307.550000", "142309.557500", "142311.565000"],
      "ContentTime": ["141830.281000", "141830.296000", "141830.296000", "141830.296000", "141830.296000", "141830.296000", "141830.296000", "141830.296000", "141830.296000", "141830.296000", "141830.312000", "141830.312000", "141830.312000", "141830.312000", "141830.312000", "141830.312000", "141830.312000", "141830.312000", "141830.328000", "141830.328000", "141830.328000", "141830.328000", "141910.281000", "141910.296000", "141910.296000", "141910.296000", "141910.296000", "141910.296000", "141910.296000", "141910.312000", "141910.312000", "141910.312000", "141910.312000", "141910.312000", "141910.312000", "141910.312000", "141910.312000", "141910.328000", "141910.328000", "141910.328000", "141910.328000", "141910.328000", "141950.281000", "141950.281000", "141950.281000", "141950.281000", "141950.281000", "141950.296000", "141950.296000", "141950.296000", "141950.296000", "141950.296000", "141950.312000", "141950.312000", "141950.312000", "141950.312000", "141950.312000", "141950.312000", "141950.312000", "141950.328000", "141950.328000", "141950.328000", "142030.281000", "142030.281000", "142030.296000", "142030.296000", "142030.296000", "142030.296000", "142030.296000", "142030.296000", "142030.312000", "142030.312000", "142030.312000", "142030.312000", "142030.312000", "142030.328000", "142030.328000", "142030.328000", "142030.328000", "142030.328000", "142030.328000", "142030.328000", "142110.281000", "142110.281000", "142110.296000", "142110.296000", "142110.296000", "142110.296000", "142110.296000", "142110.312000", "142110.312000", "142110.312000", "142110.312000", "142110.328000", "142110.328000", "142110.328000", "142110.328000", "142110.328000", "142110.328000", "142110.328000", "142110.328000", "142110.343000", "142150.281000", "142150.281000", "142150.296000", "142150.296000", "142150.296000", "142150.296000", "142150.296000", "142150.296000", "142150.296000", "142150.296000", "142150.312000", "142150.312000", "142150.312000", "142150.312000", "142150.312000", "142150.312000", "142150.312000", "142150.312000", "142150.328000", "142150.328000", "142230.281000", "142230.281000", "142230.281000", "142230.281000", "142230.281000", "142230.296000", "142230.296000", "142230.296000", "142230.296000", "142230.296000", "142230.296000", "142230.296000", "142230.296000", "142230.312000", "142230.312000", "142230.312000", "142230.312000", "142230.312000", "142230.312000", "142230.312000", "142310.281000", "142310.281000", "142310.281000", "142310.296000", "142310.296000", "142310.296000", "142310.296000", "142310.296000", "142310.296000", "142310.296000", "142310.296000", "142310.312000", "142310.312000", "142310.312000", "142310.312000", "142310.312000", "142310.312000", "142310.312000", "142310.312000", "142310.328000", "142312.453000", "142312.453000"],
      "InstanceCreationTime": ["141830.281000", "141830.296000", "141830.296000", "141830.296000", "141830.296000", "141830.296000", "141830.296000", "141830.296000", "141830.296000", "141830.296000", "141830.312000", "141830.312000", "141830.312000", "141830.312000", "141830.312000", "141830.312000", "141830.312000", "141830.312000", "141830.328000", "141830.328000", "141830.328000", "141830.328000", "141910.281000", "141910.296000", "141910.296000", "141910.296000", "141910.296000", "141910.296000", "141910.296000", "141910.312000", "141910.312000", "141910.312000", "141910.312000", "141910.312000", "141910.312000", "141910.312000", "141910.312000", "141910.328000", "141910.328000", "141910.328000", "141910.328000", "141910.328000", "141950.281000", "141950.281000", "141950.281000", "141950.281000", "141950.281000", "141950.296000", "141950.296000", "141950.296000", "141950.296000", "141950.296000", "141950.312000", "141950.312000", "141950.312000", "141950.312000", "141950.312000", "141950.312000", "141950.312000", "141950.328000", "141950.328000", "141950.328000", "142030.281000", "142030.281000", "142030.296000", "142030.296000", "142030.296000", "142030.296000", "142030.296000", "142030.296000", "142030.312000", "142030.312000", "142030.312000", "142030.312000", "142030.312000", "142030.328000", "142030.328000", "142030.328000", "142030.328000", "142030.328000", "142030.328000", "142030.328000", "142110.281000", "142110.281000", "142110.296000", "142110.296000", "142110.296000", "142110.296000", "142110.296000", "142110.312000", "142110.312000", "142110.312000", "142110.312000", "142110.328000", "142110.328000", "142110.328000", "142110.328000", "142110.328000", "142110.328000", "142110.328000", "142110.328000", "142110.343000", "142150.281000", "142150.281000", "142150.296000", "142150.296000", "142150.296000", "142150.296000", "142150.296000", "142150.296000", "142150.296000", "142150.296000", "142150.312000", "142150.312000", "142150.312000", "142150.312000", "142150.312000", "142150.312000", "142150.312000", "142150.312000", "142150.328000", "142150.328000", "142230.281000", "142230.281000", "142230.281000", "142230.281000", "142230.281000", "142230.296000", "142230.296000", "142230.296000", "142230.296000", "142230.296000", "142230.296000", "142230.296000", "142230.296000", "142230.312000", "142230.312000", "142230.312000", "142230.312000", "142230.312000", "142230.312000", "142230.312000", "142310.281000", "142310.281000", "142310.281000", "142310.296000", "142310.296000", "142310.296000", "142310.296000", "142310.296000", "142310.296000", "142310.296000", "142310.296000", "142310.312000", "142310.312000", "142310.312000", "142310.312000", "142310.312000", "142310.312000", "142310.312000", "142310.312000", "142310.328000", "142312.453000", "142312.453000"],
      "InstanceNumber": [1, 2, 3, 4, 5, 6, 7, 8, 9, 10, 11, 12, 13, 14, 15, 16, 17, 18, 19, 20, 21, 22, 23, 24, 25, 26, 27, 28, 29, 30, 31, 32, 33, 34, 35, 36, 37, 38, 39, 40, 41, 42, 43, 44, 45, 46, 47, 48, 49, 50, 51, 52, 53, 54, 55, 56, 57, 58, 59, 60, 61, 62, 63, 64, 65, 66, 67, 68, 69, 70, 71, 72, 73, 74, 75, 76, 77, 78, 79, 80, 81, 82, 83, 84, 85, 86, 87, 88, 89, 90, 91, 92, 93, 94, 95, 96, 97, 98, 99, 100, 101, 102, 103, 104, 105, 106, 107, 108, 109, 110, 111, 112, 113, 114, 115, 116, 117, 118, 119, 120, 121, 122, 123, 124, 125, 126, 127, 128, 129, 130, 131, 132, 133, 134, 135, 136, 137, 138, 139, 140, 141, 142, 143, 144, 145, 146, 147, 148, 149, 150, 151, 152, 153, 154, 155, 156, 157, 158, 159, 160, 161, 162, 163, 164],
      "LargestImagePixelValue": [1827, 1782, 1894, 1715, 1711, 1749, 1688, 1712, 1698, 1744, 1707, 1703, 1704, 1731, 1778, 1730, 1681, 1708, 1726, 1711, 1742, 1763, 1768, 1696, 1676, 1692, 1714, 1740, 1701, 1732, 1722, 1691, 1698, 1698, 1685, 1752, 1691, 1692, 1696, 1694, 1733, 1727, 1713, 1712, 1728, 1706, 1686, 1723, 1701, 1793, 1699, 1690, 1731, 1749, 1700, 1914, 1740, 1716, 1697, 1734, 1719, 1717, 1709, 1714, 1728, 1687, 1709, 1677, 1671, 1701, 1693, 1693, 1713, 1928, 1650, 1670, 1674, 1682, 1671, 1666, 1686, 1662, 1694, 1693, 1711, 1708, 1706, 1692, 1735, 1725, 1720, 1710, 1720, 1693, 1712, 1733, 1733, 1706, 1700, 1727, 1748, 1725, 1751, 1716, 1734, 1737, 1735, 1730, 1765, 1721, 1709, 1741, 1709, 1732, 1705, 1693, 1723, 1698, 1718, 1722, 1690, 1694, 1963, 1750, 1723, 1674, 1814, 1685, 1658, 1688, 1676, 1689, 1679, 1664, 1725, 1762, 1705, 1691, 1694, 1665, 1714, 1693, 1659, 1762, 1777, 1681, 1669, 1646, 1841, 1658, 1707, 1651, 1692, 1663, 1638, 1652, 1642, 1627, 1628, 1762, 1659, 1641, 1662, 1826],
      "WindowCenter": [722.0, 720.0, 721.0, 718.0, 717.0, 716.0, 716.0, 716.0, 715.0, 716.0, 715.0, 713.0, 714.0, 715.0, 715.0, 714.0, 714.0, 714.0, 714.0, 713.0, 715.0, 715.0, 716.0, 715.0, 716.0, 715.0, 716.0, 716.0, 716.0, 717.0, 717.0, 717.0, 716.0, 715.0, 714.0, 716.0, 715.0, 716.0, 716.0, 715.0, 715.0, 715.0, 717.0, 718.0, 716.0, 716.0, 715.0, 716.0, 715.0, 717.0, 715.0, 716.0, 717.0, 718.0, 717.0, 718.0, 717.0, 717.0, 717.0, 718.0, 717.0, 716.0, 715.0, 715.0, 717.0, 716.0, 717.0, 716.0, 714.0, 716.0, 715.0, 714.0, 713.0, 715.0, 714.0, 715.0, 716.0, 715.0, 715.0, 715.0, 716.0, 715.0, 715.0, 715.0, 715.0, 715.0, 714.0, 715.0, 715.0, 715.0, 716.0, 717.0, 717.0, 716.0, 716.0, 716.0, 717.0, 716.0, 715.0, 716.0, 716.0, 717.0, 717.0, 715.0, 714.0, 715.0, 715.0, 716.0, 716.0, 717.0, 717.0, 717.0, 716.0, 717.0, 717.0, 717.0, 717.0, 716.0, 716.0, 716.0, 716.0, 716.0, 718.0, 716.0, 716.0, 715.0, 716.0, 715.0, 715.0, 716.0, 716.0, 717.0, 717.0, 715.0, 715.0, 717.0, 716.0, 717.0, 716.0, 715.0, 716.0, 717.0, 717.0, 717.0, 717.0, 716.0, 716.0, 716.0, 717.0, 715.0, 716.0, 716.0, 718.0, 717.0, 717.0, 716.0, 716.0, 716.0, 716.0, 717.0, 716.0, 716.0, 716.0, 717.0],
      "WindowWidth": [1554.0, 1550.0, 1551.0, 1543.0, 1541.0, 1539.0, 1538.0, 1539.0, 1536.0, 1539.0, 1534.0, 1531.0, 1534.0, 1534.0, 1534.0, 1534.0, 1532.0, 1532.0, 1533.0, 1532.0, 1537.0, 1534.0, 1537.0, 1534.0, 1537.0, 1537.0, 1539.0, 1537.0, 1537.0, 1542.0, 1540.0, 1541.0, 1537.0, 1536.0, 1533.0, 1538.0, 1537.0, 1538.0, 1537.0, 1535.0, 1536.0, 1537.0, 1540.0, 1542.0, 1540.0, 1537.0, 1535.0, 1538.0, 1536.0, 1541.0, 1536.0, 1539.0, 1540.0, 1543.0, 1540.0, 1543.0, 1541.0, 1541.0, 1540.0, 1543.0, 1541.0, 1539.0, 1537.0, 1536.0, 1540.0, 1538.0, 1540.0, 1537.0, 1534.0, 1537.0, 1535.0, 1533.0, 1531.0, 1536.0, 1534.0, 1535.0, 1539.0, 1534.0, 1536.0, 1534.0, 1537.0, 1535.0, 1535.0, 1536.0, 1535.0, 1536.0, 1533.0, 1535.0, 1536.0, 1536.0, 1537.0, 1541.0, 1540.0, 1538.0, 1537.0, 1539.0, 1541.0, 1537.0, 1535.0, 1537.0, 1539.0, 1540.0, 1539.0, 1536.0, 1533.0, 1535.0, 1536.0, 1536.0, 1538.0, 1540.0, 1539.0, 1541.0, 1537.0, 1540.0, 1540.0, 1541.0, 1539.0, 1538.0, 1537.0, 1537.0, 1537.0, 1536.0, 1542.0, 1537.0, 1537.0, 1536.0, 1537.0, 1535.0, 1535.0, 1538.0, 1538.0, 1539.0, 1539.0, 1536.0, 1536.0, 1539.0, 1539.0, 1541.0, 1538.0, 1535.0, 1538.0, 1541.0, 1540.0, 1540.0, 1540.0, 1536.0, 1537.0, 1537.0, 1540.0, 1534.0, 1537.0, 1538.0, 1541.0, 1541.0, 1539.0, 1539.0, 1538.0, 1537.0, 1536.0, 1541.0, 1538.0, 1538.0, 1537.0, 1541.0]
    },
    "slices": {}
  }
}