{
  "AcquisitionMatrixPE": 64,
  "AcquisitionNumber": 1,
  "AcquisitionTime": "13:58:29.475000",
  "BandwidthPerPixelPhaseEncode": 33.967,
  "BaseResolution": 64,
  "CoilCombinationMethod": "Sum of Squares",
  "CoilString": "C:HEA;HEP",
  "ConversionSoftware": "dcm2niix",
  "ConversionSoftwareVersion": "v1.0.20220720",
  "DerivedVendorReportedEchoSpacing": 0.000460005,
  "DeviceSerialNumber": "35193",
  "DwellTime": 3.1e-06,
  "EchoTime": 0.03,
  "EffectiveEchoSpacing": 0.000460005,
  "FlipAngle": 90,
  "HeudiconvVersion": "1.1.6",
  "ImageOrientationPatientDICOM": [1, 0, 0, 0, 1, 0],
  "ImageOrientationText": "Tra",
  "ImageType": [
    "ORIGINAL",
    "PRIMARY",
    "M",
    "ND",
    "MOSAIC"
],
  "ImagingFrequency": 123.254,
  "InPlanePhaseEncodingDirectionDICOM": "COL",
  "InstitutionAddress": "Xinjiekouwai Street No 19,Beijing,Haidian District,CN,100875",
  "InstitutionName": "BNU MRI Center",
  "InstitutionalDepartmentName": "Department",
  "MRAcquisitionType": "2D",
  "MagneticFieldStrength": 3,
  "Manufacturer": "Siemens",
  "ManufacturersModelName": "TrioTim",
  "MatrixCoilMode": "SENSE",
  "Modality": "MR",
  "NonlinearGradientCorrection": false,
  "PartialFourier": 1,
  "PatientPosition": "HFS",
  "PercentPhaseFOV": 100,
  "PercentSampling": 100,
  "PhaseEncodingDirection": "j-",
  "PhaseEncodingSteps": 64,
  "PhaseResolution": 1,
  "PixelBandwidth": 2520,
  "ProcedureStepDescription": "BNU_cst_2015^Guo.TaoMei",
  "ProtocolName": "ge_func_3x3x4_164",
  "PulseSequenceDetails": "%SiemensSeq%\\ep2d_bold",
  "ReceiveCoilName": "HeadMatrix",
  "ReconMatrixPE": 64,
  "RepetitionTime": 2,
  "SAR": 0.17628,
  "ScanOptions": "FS",
  "ScanningSequence": "EP",
  "SequenceName": "*epfid2d1_64",
  "SequenceVariant": "SK",
  "SeriesDescription": "ge_func_3x3x4_164",
  "SeriesNumber": 2,
  "ShimSetting": [-4552, -19375, -9743, 1066, -175, -707, 24, -65],
  "SliceThickness": 4,
  "SliceTiming": [0, 1.0325, 0.06, 1.095, 0.12, 1.155, 0.1825, 1.215, 0.2425, 1.2775, 0.3025, 1.3375, 0.365, 1.3975, 0.425, 1.46, 0.485, 1.52, 0.5475, 1.58, 0.6075, 1.6425, 0.6675, 1.7025, 0.73, 1.7625, 0.79, 1.825, 0.85, 1.885, 0.9125, 1.945, 0.9725],
  "SoftwareVersions": "syngo MR B17",
  "SpacingBetweenSlices": 4.6,
  "StationName": "MRC35193",
  "TaskName": "CognitiveControl",
  "TotalReadoutTime": 0.0289803,
  "TxRefAmp": 357.611,
  "dcmmeta_affine": [
    [-3.125, 0.0, 0.0, 103.37349700927734],
    [0.0, 3.125, 0.0, -88.77861785888672],
    [0.0, 0.0, 4.599999904632568, -66.85301208496094],
    [0.0, 0.0, 0.0, 1.0]
],
  "dcmmeta_reorient_transform": [
    [0.0, -1.0, 0.0, 63.0],
    [1.0, 0.0, 0.0, 0.0],
    [0.0, 0.0, 1.0, 0.0],
    [0.0, 0.0, 0.0, 1.0]
],
  "dcmmeta_shape": [64, 64, 33, 164],
  "dcmmeta_slice_dim": 2,
  "dcmmeta_version": 0.6,
  "global": {
    "const": {
      "AcquisitionMatrix": [64, 0, 0, 64],
      "AngioFlag": "N",
      "BitsAllocated": 16,
      "BitsStored": 12,
      "Columns": 384,
      "EchoNumbers": 1,
      "EchoTime": 30.0,
      "EchoTrainLength": 1,
      "FlipAngle": 90.0,
      "HighBit": 11,
      "ImageOrientationPatient": [1.0, 0.0, 0.0, 0.0, 1.0, 0.0],
      "ImagePositionPatient": [-603.37349390984, -608.09638595581, -66.853012084961],
      "ImageType": [
        "ORIGINAL",
        "PRIMARY",
        "M",
        "ND",
        "MOSAIC"
],
      "ImagedNucleus": "1H",
      "ImagingFrequency": 123.253944,
      "InPlanePhaseEncodingDirection": "COL",
      "MRAcquisitionType": "2D",
      "MagneticFieldStrength": 3.0,
      "Manufacturer": "SIEMENS",
      "ManufacturerModelName": "TrioTim",
      "Modality": "MR",
      "NumberOfAverages": 1.0,
      "NumberOfPhaseEncodingSteps": 64,
      "PercentPhaseFieldOfView": 100.0,
      "PercentSampling": 100.0,
      "PerformedProcedureStepStartTime": "135545.062000",
      "PhotometricInterpretation": "MONOCHROME2",
      "PixelBandwidth": 2520.0,
      "PixelRepresentation": 0,
      "PixelSpacing": [3.125, 3.125],
      "ProtocolName": "ge_func_3x3x4_164",
      "RepetitionTime": 2000.0,
      "Rows": 384,
      "SAR": 0.17627963935624,
      "SamplesPerPixel": 1,
      "ScanOptions": "FS",
      "ScanningSequence": "EP",
      "SequenceName": "*epfid2d1_64",
      "SequenceVariant": "SK",
      "SeriesDescription": "ge_func_3x3x4_164",
      "SeriesNumber": 2,
      "SeriesTime": "135910.281000",
      "SliceLocation": -66.853012084961,
      "SliceThickness": 4.0,
      "SmallestImagePixelValue": 0,
      "SoftwareVersions": "syngo MR B17",
      "SpacingBetweenSlices": 4.5999999046326,
      "SpecificCharacterSet": "ISO_IR 100",
      "StudyID": "1",
      "StudyTime": "135544.984000",
      "TransmitCoilName": "Body",
      "VariableFlipAngleFlag": "N",
      "WindowCenterWidthExplanation": "Algo1",
      "dBdt": 0.0},
    "slices": {}
  },
  "time": {
    "samples": {
      "AcquisitionNumber": [1, 2, 3, 4, 5, 6, 7, 8, 9, 10, 11, 12, 13, 14, 15, 16, 17, 18, 19, 20, 21, 22, 23, 24, 25, 26, 27, 28, 29, 30, 31, 32, 33, 34, 35, 36, 37, 38, 39, 40, 41, 42, 43, 44, 45, 46, 47, 48, 49, 50, 51, 52, 53, 54, 55, 56, 57, 58, 59, 60, 61, 62, 63, 64, 65, 66, 67, 68, 69, 70, 71, 72, 73, 74, 75, 76, 77, 78, 79, 80, 81, 82, 83, 84, 85, 86, 87, 88, 89, 90, 91, 92, 93, 94, 95, 96, 97, 98, 99, 100, 101, 102, 103, 104, 105, 106, 107, 108, 109, 110, 111, 112, 113, 114, 115, 116, 117, 118, 119, 120, 121, 122, 123, 124, 125, 126, 127, 128, 129, 130, 131, 132, 133, 134, 135, 136, 137, 138, 139, 140, 141, 142, 143, 144, 145, 146, 147, 148, 149, 150, 151, 152, 153, 154, 155, 156, 157, 158, 159, 160, 161, 162, 163, 164],
      "AcquisitionTime": ["135829.475000", "135831.482500", "135833.490000", "135835.497500", "135837.507500", "135839.515000", "135841.522500", "135843.530000", "135845.537500", "135847.547500", "135849.555000", "135851.562500", "135853.570000", "135855.577500", "135857.587500", "135859.595000", "135901.602500", "135903.610000", "135905.620000", "135907.627500", "135909.635000", "135911.642500", "135913.650000", "135915.660000", "135917.667500", "135919.675000", "135921.682500", "135923.690000", "135925.700000", "135927.707500", "135929.715000", "135931.722500", "135933.732500", "135935.740000", "135937.747500", "135939.755000", "135941.762500", "135943.772500", "135945.780000", "135947.787500", "135949.795000", "135951.802500", "135953.812500", "135955.820000", "135957.827500", "135959.835000", "140001.845000", "140003.852500", "140005.860000", "140007.867500", "140009.875000", "140011.885000", "140013.892500", "140015.900000", "140017.907500", "140019.915000", "140021.925000", "140023.932500", "140025.940000", "140027.947500", "140029.955000", "140031.965000", "140033.972500", "140035.980000", "140037.987500", "140039.997500", "140042.005000", "140044.012500", "140046.020000", "140048.027500", "140050.037500", "140052.045000", "140054.052500", "140056.060000", "140058.067500", "140100.077500", "140102.085000", "140104.092500", "140106.100000", "140108.110000", "140110.117500", "140112.125000", "140114.132500", "140116.140000", "140118.150000", "140120.157500", "140122.165000", "140124.172500", "140126.180000", "140128.190000", "140130.197500", "140132.205000", "140134.212500", "140136.222500", "140138.230000", "140140.237500", "140142.245000", "140144.252500", "140146.262500", "140148.270000", "140150.277500", "140152.285000", "140154.292500", "140156.302500", "140158.310000", "140200.317500", "140202.325000", "140204.332500", "140206.342500", "140208.350000", "140210.357500", "140212.365000", "140214.375000", "140216.382500", "140218.390000", "140220.397500", "140222.405000", "140224.415000", "140226.422500", "140228.430000", "140230.437500", "140232.445000", "140234.455000", "140236.462500", "140238.470000", "140240.477500", "140242.487500", "140244.495000", "140246.502500", "140248.510000", "140250.517500", "140252.527500", "140254.535000", "140256.542500", "140258.550000", "140300.557500", "140302.567500", "140304.575000", "140306.582500", "140308.590000", "140310.600000", "140312.607500", "140314.615000", "140316.622500", "140318.630000", "140320.640000", "140322.647500", "140324.655000", "140326.662500", "140328.670000", "140330.680000", "140332.687500", "140334.695000", "140336.702500", "140338.712500", "140340.720000", "140342.727500", "140344.735000", "140346.742500", "140348.752500", "140350.760000", "140352.767500", "140354.775000", "140356.782500"],
      "ContentTime": ["135910.281000", "135910.296000", "135910.296000", "135910.296000", "135910.296000", "135910.296000", "135910.312000", "135910.312000", "135910.312000", "135910.312000", "135910.312000", "135910.312000", "135910.312000", "135910.312000", "135910.328000", "135910.328000", "135910.328000", "135910.328000", "135910.328000", "135910.328000", "135950.281000", "135950.281000", "135950.281000", "135950.281000", "135950.281000", "135950.296000", "135950.296000", "135950.296000", "135950.296000", "135950.296000", "135950.296000", "135950.296000", "135950.296000", "135950.312000", "135950.312000", "135950.312000", "135950.312000", "135950.312000", "135950.312000", "135950.312000", "140030.281000", "140030.281000", "140030.281000", "140030.281000", "140030.281000", "140030.296000", "140030.296000", "140030.296000", "140030.296000", "140030.296000", "140030.296000", "140030.296000", "140030.296000", "140030.312000", "140030.312000", "140030.312000", "140030.312000", "140030.312000", "140030.312000", "140030.328000", "140110.281000", "140110.281000", "140110.281000", "140110.281000", "140110.281000", "140110.296000", "140110.296000", "140110.296000", "140110.296000", "140110.296000", "140110.296000", "140110.312000", "140110.312000", "140110.312000", "140110.312000", "140110.312000", "140110.328000", "140110.328000", "140110.328000", "140110.328000", "140150.281000", "140150.281000", "140150.281000", "140150.296000", "140150.296000", "140150.296000", "140150.296000", "140150.312000", "140150.312000", "140150.312000", "140150.328000", "140150.328000", "140150.328000", "140150.328000", "140150.343000", "140150.343000", "140150.343000", "140150.343000", "140150.343000", "140150.343000", "140230.281000", "140230.281000", "140230.281000", "140230.281000", "140230.281000", "140230.296000", "140230.296000", "140230.296000", "140230.296000", "140230.296000", "140230.312000", "140230.312000", "140230.312000", "140230.312000", "140230.312000", "140230.312000", "140230.312000", "140230.312000", "140230.328000", "140230.328000", "140310.281000", "140310.281000", "140310.281000", "140310.281000", "140310.281000", "140310.296000", "140310.296000", "140310.296000", "140310.296000", "140310.296000", "140310.296000", "140310.296000", "140310.296000", "140310.296000", "140310.312000", "140310.312000", "140310.312000", "140310.312000", "140310.312000", "140310.312000", "140350.281000", "140350.281000", "140350.281000", "140350.281000", "140350.281000", "140350.296000", "140350.296000", "140350.296000", "140350.296000", "140350.312000", "140350.312000", "140350.312000", "140350.312000", "140350.312000", "140350.312000", "140350.312000", "140350.312000", "140350.328000", "140350.328000", "140350.328000", "140358.093000", "140358.093000", "140358.093000", "140358.093000"],
      "InstanceCreationTime": ["135910.281000", "135910.296000", "135910.296000", "135910.296000", "135910.296000", "135910.296000", "135910.312000", "135910.312000", "135910.312000", "135910.312000", "135910.312000", "135910.312000", "135910.312000", "135910.312000", "135910.328000", "135910.328000", "135910.328000", "135910.328000", "135910.328000", "135910.328000", "135950.281000", "135950.281000", "135950.281000", "135950.281000", "135950.281000", "135950.296000", "135950.296000", "135950.296000", "135950.296000", "135950.296000", "135950.296000", "135950.296000", "135950.296000", "135950.312000", "135950.312000", "135950.312000", "135950.312000", "135950.312000", "135950.312000", "135950.312000", "140030.281000", "140030.281000", "140030.281000", "140030.281000", "140030.281000", "140030.296000", "140030.296000", "140030.296000", "140030.296000", "140030.296000", "140030.296000", "140030.296000", "140030.296000", "140030.312000", "140030.312000", "140030.312000", "140030.312000", "140030.312000", "140030.312000", "140030.328000", "140110.281000", "140110.281000", "140110.281000", "140110.281000", "140110.281000", "140110.296000", "140110.296000", "140110.296000", "140110.296000", "140110.296000", "140110.296000", "140110.312000", "140110.312000", "140110.312000", "140110.312000", "140110.312000", "140110.328000", "140110.328000", "140110.328000", "140110.328000", "140150.281000", "140150.281000", "140150.281000", "140150.296000", "140150.296000", "140150.296000", "140150.296000", "140150.312000", "140150.312000", "140150.312000", "140150.328000", "140150.328000", "140150.328000", "140150.328000", "140150.343000", "140150.343000", "140150.343000", "140150.343000", "140150.343000", "140150.343000", "140230.281000", "140230.281000", "140230.281000", "140230.281000", "140230.281000", "140230.296000", "140230.296000", "140230.296000", "140230.296000", "140230.296000", "140230.312000", "140230.312000", "140230.312000", "140230.312000", "140230.312000", "140230.312000", "140230.312000", "140230.312000", "140230.328000", "140230.328000", "140310.281000", "140310.281000", "140310.281000", "140310.281000", "140310.281000", "140310.296000", "140310.296000", "140310.296000", "140310.296000", "140310.296000", "140310.296000", "140310.296000", "140310.296000", "140310.296000", "140310.312000", "140310.312000", "140310.312000", "140310.312000", "140310.312000", "140310.312000", "140350.281000", "140350.281000", "140350.281000", "140350.281000", "140350.281000", "140350.296000", "140350.296000", "140350.296000", "140350.296000", "140350.312000", "140350.312000", "140350.312000", "140350.312000", "140350.312000", "140350.312000", "140350.312000", "140350.312000", "140350.328000", "140350.328000", "140350.328000", "140358.093000", "140358.093000", "140358.093000", "140358.093000"],
      "InstanceNumber": [1, 2, 3, 4, 5, 6, 7, 8, 9, 10, 11, 12, 13, 14, 15, 16, 17, 18, 19, 20, 21, 22, 23, 24, 25, 26, 27, 28, 29, 30, 31, 32, 33, 34, 35, 36, 37, 38, 39, 40, 41, 42, 43, 44, 45, 46, 47, 48, 49, 50, 51, 52, 53, 54, 55, 56, 57, 58, 59, 60, 61, 62, 63, 64, 65, 66, 67, 68, 69, 70, 71, 72, 73, 74, 75, 76, 77, 78, 79, 80, 81, 82, 83, 84, 85, 86, 87, 88, 89, 90, 91, 92, 93, 94, 95, 96, 97, 98, 99, 100, 101, 102, 103, 104, 105, 106, 107, 108, 109, 110, 111, 112, 113, 114, 115, 116, 117, 118, 119, 120, 121, 122, 123, 124, 125, 126, 127, 128, 129, 130, 131, 132, 133, 134, 135, 136, 137, 138, 139, 140, 141, 142, 143, 144, 145, 146, 147, 148, 149, 150, 151, 152, 153, 154, 155, 156, 157, 158, 159, 160, 161, 162, 163, 164],
      "LargestImagePixelValue": [1820, 1734, 1734, 1716, 1719, 1706, 1713, 1697, 1698, 1717, 1725, 1730, 1698, 1686, 1702, 1725, 1722, 1693, 1724, 1695, 1703, 1718, 1712, 1698, 1701, 1683, 1701, 1696, 1685, 1707, 1683, 1701, 1696, 1687, 1671, 1680, 1674, 1682, 1664, 1698, 1672, 1662, 1657, 1667, 1665, 1676, 1667, 1667, 1677, 1647, 1649, 1671, 1668, 1656, 1640, 1676, 1661, 1653, 1649, 1654, 1652, 1673, 1662, 1670, 1663, 1655, 1657, 1639, 1686, 1677, 1668, 1647, 1637, 1666, 1675, 1666, 1687, 1675, 1762, 1659, 1675, 1701, 1674, 1685, 1664, 1663, 1675, 1675, 1669, 1694, 1690, 1685, 1666, 1665, 1644, 1683, 1670, 1672, 1672, 1650, 1661, 1654, 1656, 1671, 1671, 1669, 1672, 1692, 1682, 1670, 1648, 1654, 1682, 1692, 1685, 1672, 1675, 1670, 1701, 2023, 1683, 1675, 1679, 1675, 1681, 1685, 1698, 1686, 1676, 1666, 1677, 1676, 1671, 1689, 1689, 1688, 1677, 1732, 1703, 1695, 1688, 1712, 1727, 1699, 1711, 1702, 1695, 1705, 1705, 1717, 1711, 1713, 1711, 1719, 1699, 1706, 1685, 1811, 1715, 1707, 1732, 1721, 1692, 1729],
      "WindowCenter": [725.0, 722.0, 721.0, 722.0, 721.0, 720.0, 720.0, 719.0, 720.0, 720.0, 720.0, 721.0, 721.0, 721.0, 721.0, 722.0, 722.0, 722.0, 722.0, 721.0, 721.0, 721.0, 722.0, 721.0, 721.0, 721.0, 721.0, 722.0, 722.0, 722.0, 721.0, 721.0, 722.0, 721.0, 721.0, 721.0, 721.0, 721.0, 720.0, 721.0, 721.0, 721.0, 721.0, 721.0, 720.0, 720.0, 721.0, 721.0, 722.0, 720.0, 720.0, 722.0, 722.0, 721.0, 721.0, 722.0, 722.0, 721.0, 720.0, 720.0, 721.0, 721.0, 721.0, 720.0, 719.0, 720.0, 720.0, 720.0, 720.0, 719.0, 719.0, 720.0, 720.0, 720.0, 720.0, 721.0, 721.0, 721.0, 721.0, 720.0, 720.0, 721.0, 720.0, 720.0, 720.0, 720.0, 721.0, 720.0, 720.0, 720.0, 720.0, 720.0, 719.0, 719.0, 719.0, 720.0, 720.0, 721.0, 720.0, 719.0, 719.0, 719.0, 719.0, 720.0, 719.0, 719.0, 720.0, 721.0, 721.0, 720.0, 720.0, 720.0, 719.0, 720.0, 720.0, 720.0, 719.0, 719.0, 720.0, 723.0, 720.0, 720.0, 719.0, 720.0, 721.0, 720.0, 721.0, 720.0, 719.0, 719.0, 719.0, 719.0, 720.0, 719.0, 720.0, 720.0, 720.0, 720.0, 719.0, 719.0, 720.0, 721.0, 720.0, 719.0, 720.0, 720.0, 720.0, 721.0, 720.0, 720.0, 720.0, 720.0, 721.0, 721.0, 720.0, 720.0, 719.0, 721.0, 721.0, 720.0, 720.0, 720.0, 720.0, 721.0],
      "WindowWidth": [1562.0, 1553.0, 1553.0, 1553.0, 1550.0, 1548.0, 1549.0, 1546.0, 1548.0, 1548.0, 1549.0, 1552.0, 1552.0, 1551.0, 1552.0, 1554.0, 1554.0, 1554.0, 1555.0, 1551.0, 1551.0, 1553.0, 1554.0, 1553.0, 1551.0, 1551.0, 1552.0, 1554.0, 1555.0, 1554.0, 1552.0, 1553.0, 1554.0, 1551.0, 1551.0, 1552.0, 1551.0, 1551.0, 1550.0, 1551.0, 1552.0, 1550.0, 1551.0, 1551.0, 1548.0, 1550.0, 1552.0, 1553.0, 1553.0, 1550.0, 1550.0, 1553.0, 1553.0, 1552.0, 1552.0, 1554.0, 1553.0, 1550.0, 1549.0, 1550.0, 1552.0, 1553.0, 1551.0, 1549.0, 1548.0, 1549.0, 1549.0, 1548.0, 1549.0, 1546.0, 1548.0, 1549.0, 1549.0, 1549.0, 1550.0, 1551.0, 1551.0, 1551.0, 1551.0, 1549.0, 1550.0, 1551.0, 1550.0, 1549.0, 1548.0, 1550.0, 1551.0, 1549.0, 1548.0, 1549.0, 1548.0, 1548.0, 1547.0, 1547.0, 1545.0, 1548.0, 1550.0, 1551.0, 1549.0, 1546.0, 1547.0, 1545.0, 1546.0, 1548.0, 1547.0, 1546.0, 1548.0, 1550.0, 1550.0, 1550.0, 1550.0, 1550.0, 1547.0, 1548.0, 1548.0, 1548.0, 1546.0, 1547.0, 1549.0, 1557.0, 1548.0, 1548.0, 1547.0, 1548.0, 1550.0, 1548.0, 1551.0, 1549.0, 1547.0, 1545.0, 1546.0, 1547.0, 1547.0, 1546.0, 1547.0, 1548.0, 1547.0, 1547.0, 1546.0, 1547.0, 1549.0, 1550.0, 1548.0, 1546.0, 1548.0, 1548.0, 1548.0, 1550.0, 1550.0, 1549.0, 1549.0, 1549.0, 1551.0, 1551.0, 1549.0, 1547.0, 1546.0, 1551.0, 1551.0, 1550.0, 1550.0, 1549.0, 1549.0, 1551.0]
    },
    "slices": {}
  }
}