{
  "AcquisitionMatrixPE": 64,
  "AcquisitionNumber": 1,
  "AcquisitionTime": "14:11:33.662500",
  "BandwidthPerPixelPhaseEncode": 33.967,
  "BaseResolution": 64,
  "CoilCombinationMethod": "Sum of Squares",
  "CoilString": "C:HEA;HEP",
  "ConversionSoftware": "dcm2niix",
  "ConversionSoftwareVersion": "v1.0.20220720",
  "DerivedVendorReportedEchoSpacing": 0.000460005,
  "DeviceSerialNumber": "35193",
  "DwellTime": 3.1e-06,
  "EchoTime": 0.03,
  "EffectiveEchoSpacing": 0.000460005,
  "FlipAngle": 90,
  "HeudiconvVersion": "1.1.6",
  "ImageOrientationPatientDICOM": [1, 0, 0, 0, 1, 0],
  "ImageOrientationText": "Tra",
  "ImageType": [
    "ORIGINAL",
    "PRIMARY",
    "M",
    "ND",
    "MOSAIC"
],
  "ImagingFrequency": 123.254,
  "InPlanePhaseEncodingDirectionDICOM": "COL",
  "InstitutionAddress": "Xinjiekouwai Street No 19,Beijing,Haidian District,CN,100875",
  "InstitutionName": "BNU MRI Center",
  "InstitutionalDepartmentName": "Department",
  "MRAcquisitionType": "2D",
  "MagneticFieldStrength": 3,
  "Manufacturer": "Siemens",
  "ManufacturersModelName": "TrioTim",
  "MatrixCoilMode": "SENSE",
  "Modality": "MR",
  "NonlinearGradientCorrection": false,
  "PartialFourier": 1,
  "PatientPosition": "HFS",
  "PercentPhaseFOV": 100,
  "PercentSampling": 100,
  "PhaseEncodingDirection": "j-",
  "PhaseEncodingSteps": 64,
  "PhaseResolution": 1,
  "PixelBandwidth": 2520,
  "ProcedureStepDescription": "BNU_cst_2015^Guo.TaoMei",
  "ProtocolName": "ge_func_3x3x4_164",
  "PulseSequenceDetails": "%SiemensSeq%\\ep2d_bold",
  "ReceiveCoilName": "HeadMatrix",
  "ReconMatrixPE": 64,
  "RepetitionTime": 2,
  "SAR": 0.17628,
  "ScanOptions": "FS",
  "ScanningSequence": "EP",
  "SequenceName": "*epfid2d1_64",
  "SequenceVariant": "SK",
  "SeriesDescription": "ge_func_3x3x4_164",
  "SeriesNumber": 4,
  "ShimSetting": [-4552, -19375, -9743, 1066, -175, -707, 24, -65],
  "SliceThickness": 4,
  "SliceTiming": [0, 1.035, 0.06, 1.095, 0.1225, 1.155, 0.1825, 1.2175, 0.2425, 1.2775, 0.305, 1.3375, 0.365, 1.4, 0.425, 1.46, 0.4875, 1.52, 0.5475, 1.5825, 0.6075, 1.6425, 0.67, 1.7025, 0.73, 1.765, 0.79, 1.825, 0.8525, 1.885, 0.9125, 1.9475, 0.9725],
  "SoftwareVersions": "syngo MR B17",
  "SpacingBetweenSlices": 4.6,
  "StationName": "MRC35193",
  "TaskName": "LanguageControl",
  "TotalReadoutTime": 0.0289803,
  "TxRefAmp": 357.611,
  "dcmmeta_affine": [
    [-3.125, 0.0, 0.0, 103.37349700927734],
    [0.0, 3.125, 0.0, -88.77861785888672],
    [0.0, 0.0, 4.599999904632568, -66.85301208496094],
    [0.0, 0.0, 0.0, 1.0]
],
  "dcmmeta_reorient_transform": [
    [0.0, -1.0, 0.0, 63.0],
    [1.0, 0.0, 0.0, 0.0],
    [0.0, 0.0, 1.0, 0.0],
    [0.0, 0.0, 0.0, 1.0]
],
  "dcmmeta_shape": [64, 64, 33, 164],
  "dcmmeta_slice_dim": 2,
  "dcmmeta_version": 0.6,
  "global": {
    "const": {
      "AcquisitionMatrix": [64, 0, 0, 64],
      "AngioFlag": "N",
      "BitsAllocated": 16,
      "BitsStored": 12,
      "Columns": 384,
      "EchoNumbers": 1,
      "EchoTime": 30.0,
      "EchoTrainLength": 1,
      "FlipAngle": 90.0,
      "HighBit": 11,
      "ImageOrientationPatient": [1.0, 0.0, 0.0, 0.0, 1.0, 0.0],
      "ImagePositionPatient": [-603.37349390984, -608.09638595581, -66.853012084961],
      "ImageType": [
        "ORIGINAL",
        "PRIMARY",
        "M",
        "ND",
        "MOSAIC"
],
      "ImagedNucleus": "1H",
      "ImagingFrequency": 123.253942,
      "InPlanePhaseEncodingDirection": "COL",
      "MRAcquisitionType": "2D",
      "MagneticFieldStrength": 3.0,
      "Manufacturer": "SIEMENS",
      "ManufacturerModelName": "TrioTim",
      "Modality": "MR",
      "NumberOfAverages": 1.0,
      "NumberOfPhaseEncodingSteps": 64,
      "PercentPhaseFieldOfView": 100.0,
      "PercentSampling": 100.0,
      "PerformedProcedureStepStartTime": "135545.062000",
      "PhotometricInterpretation": "MONOCHROME2",
      "PixelBandwidth": 2520.0,
      "PixelRepresentation": 0,
      "PixelSpacing": [3.125, 3.125],
      "ProtocolName": "ge_func_3x3x4_164",
      "RepetitionTime": 2000.0,
      "Rows": 384,
      "SAR": 0.17627963935624,
      "SamplesPerPixel": 1,
      "ScanOptions": "FS",
      "ScanningSequence": "EP",
      "SequenceName": "*epfid2d1_64",
      "SequenceVariant": "SK",
      "SeriesDescription": "ge_func_3x3x4_164",
      "SeriesNumber": 4,
      "SeriesTime": "141226.187000",
      "SliceLocation": -66.853012084961,
      "SliceThickness": 4.0,
      "SmallestImagePixelValue": 0,
      "SoftwareVersions": "syngo MR B17",
      "SpacingBetweenSlices": 4.5999999046326,
      "SpecificCharacterSet": "ISO_IR 100",
      "StudyID": "1",
      "StudyTime": "135544.984000",
      "TransmitCoilName": "Body",
      "VariableFlipAngleFlag": "N",
      "WindowCenterWidthExplanation": "Algo1",
      "dBdt": 0.0},
    "slices": {}
  },
  "time": {
    "samples": {
      "AcquisitionNumber": [1, 2, 3, 4, 5, 6, 7, 8, 9, 10, 11, 12, 13, 14, 15, 16, 17, 18, 19, 20, 21, 22, 23, 24, 25, 26, 27, 28, 29, 30, 31, 32, 33, 34, 35, 36, 37, 38, 39, 40, 41, 42, 43, 44, 45, 46, 47, 48, 49, 50, 51, 52, 53, 54, 55, 56, 57, 58, 59, 60, 61, 62, 63, 64, 65, 66, 67, 68, 69, 70, 71, 72, 73, 74, 75, 76, 77, 78, 79, 80, 81, 82, 83, 84, 85, 86, 87, 88, 89, 90, 91, 92, 93, 94, 95, 96, 97, 98, 99, 100, 101, 102, 103, 104, 105, 106, 107, 108, 109, 110, 111, 112, 113, 114, 115, 116, 117, 118, 119, 120, 121, 122, 123, 124, 125, 126, 127, 128, 129, 130, 131, 132, 133, 134, 135, 136, 137, 138, 139, 140, 141, 142, 143, 144, 145, 146, 147, 148, 149, 150, 151, 152, 153, 154, 155, 156, 157, 158, 159, 160, 161, 162, 163, 164],
      "AcquisitionTime": ["141133.662500", "141135.670000", "141137.680000", "141139.687500", "141141.695000", "141143.702500", "141145.710000", "141147.720000", "141149.727500", "141151.735000", "141153.742500", "141155.750000", "141157.760000", "141159.767500", "141201.775000", "141203.782500", "141205.792500", "141207.800000", "141209.807500", "141211.815000", "141213.822500", "141215.832500", "141217.840000", "141219.847500", "141221.855000", "141223.862500", "141225.872500", "141227.880000", "141229.887500", "141231.895000", "141233.905000", "141235.912500", "141237.920000", "141239.927500", "141241.935000", "141243.945000", "141245.952500", "141247.960000", "141249.967500", "141251.975000", "141253.985000", "141255.992500", "141258.000000", "141300.007500", "141302.015000", "141304.025000", "141306.032500", "141308.040000", "141310.047500", "141312.057500", "141314.065000", "141316.072500", "141318.080000", "141320.087500", "141322.097500", "141324.105000", "141326.112500", "141328.120000", "141330.127500", "141332.137500", "141334.145000", "141336.152500", "141338.160000", "141340.170000", "141342.177500", "141344.185000", "141346.192500", "141348.200000", "141350.210000", "141352.217500", "141354.225000", "141356.232500", "141358.240000", "141400.250000", "141402.257500", "141404.265000", "141406.272500", "141408.282500", "141410.290000", "141412.297500", "141414.305000", "141416.312500", "141418.322500", "141420.330000", "141422.337500", "141424.345000", "141426.352500", "141428.362500", "141430.370000", "141432.377500", "141434.385000", "141436.395000", "141438.402500", "141440.410000", "141442.417500", "141444.425000", "141446.435000", "141448.442500", "141450.450000", "141452.457500", "141454.465000", "141456.475000", "141458.482500", "141500.490000", "141502.497500", "141504.505000", "141506.515000", "141508.522500", "141510.530000", "141512.537500", "141514.547500", "141516.555000", "141518.562500", "141520.570000", "141522.577500", "141524.587500", "141526.595000", "141528.602500", "141530.610000", "141532.617500", "141534.627500", "141536.635000", "141538.642500", "141540.650000", "141542.660000", "141544.667500", "141546.675000", "141548.682500", "141550.690000", "141552.700000", "141554.707500", "141556.715000", "141558.722500", "141600.730000", "141602.740000", "141604.747500", "141606.755000", "141608.762500", "141610.772500", "141612.780000", "141614.787500", "141616.795000", "141618.802500", "141620.812500", "141622.820000", "141624.827500", "141626.835000", "141628.842500", "141630.852500", "141632.860000", "141634.867500", "141636.875000", "141638.882500", "141640.892500", "141642.900000", "141644.907500", "141646.915000", "141648.925000", "141650.932500", "141652.940000", "141654.947500", "141656.955000", "141658.965000", "141700.972500"],
      "ContentTime": ["141226.187000", "141226.187000", "141226.203000", "141226.203000", "141226.203000", "141226.203000", "141226.203000", "141226.203000", "141226.203000", "141226.218000", "141226.218000", "141226.218000", "141226.218000", "141226.218000", "141226.218000", "141226.218000", "141226.218000", "141226.234000", "141226.234000", "141226.234000", "141226.234000", "141226.234000", "141226.234000", "141226.250000", "141226.250000", "141226.250000", "141306.171000", "141306.171000", "141306.171000", "141306.187000", "141306.187000", "141306.187000", "141306.187000", "141306.187000", "141306.203000", "141306.203000", "141306.203000", "141306.203000", "141306.203000", "141306.203000", "141306.218000", "141306.218000", "141306.218000", "141306.218000", "141306.218000", "141306.218000", "141346.171000", "141346.187000", "141346.187000", "141346.187000", "141346.187000", "141346.187000", "141346.203000", "141346.203000", "141346.203000", "141346.203000", "141346.203000", "141346.218000", "141346.218000", "141346.218000", "141346.218000", "141346.218000", "141346.218000", "141346.218000", "141346.218000", "141346.234000", "141426.171000", "141426.171000", "141426.171000", "141426.171000", "141426.171000", "141426.187000", "141426.187000", "141426.187000", "141426.187000", "141426.187000", "141426.187000", "141426.187000", "141426.187000", "141426.203000", "141426.203000", "141426.203000", "141426.203000", "141426.203000", "141426.203000", "141426.203000", "141506.171000", "141506.187000", "141506.187000", "141506.187000", "141506.187000", "141506.203000", "141506.203000", "141506.203000", "141506.218000", "141506.218000", "141506.218000", "141506.218000", "141506.218000", "141506.218000", "141506.218000", "141506.218000", "141506.234000", "141506.234000", "141506.234000", "141506.234000", "141546.171000", "141546.171000", "141546.171000", "141546.171000", "141546.171000", "141546.187000", "141546.187000", "141546.187000", "141546.187000", "141546.187000", "141546.187000", "141546.187000", "141546.203000", "141546.203000", "141546.203000", "141546.203000", "141546.203000", "141546.203000", "141546.203000", "141546.203000", "141626.171000", "141626.187000", "141626.187000", "141626.187000", "141626.203000", "141626.203000", "141626.203000", "141626.203000", "141626.203000", "141626.203000", "141626.203000", "141626.218000", "141626.218000", "141626.218000", "141626.218000", "141626.218000", "141626.218000", "141626.218000", "141626.218000", "141626.234000", "141701.796000", "141701.796000", "141701.796000", "141701.812000", "141701.812000", "141701.812000", "141701.812000", "141701.812000", "141701.812000", "141701.828000", "141701.828000", "141701.828000", "141701.828000", "141701.828000", "141701.828000", "141701.828000", "141701.843000", "141701.843000"],
      "InstanceCreationTime": ["141226.187000", "141226.187000", "141226.203000", "141226.203000", "141226.203000", "141226.203000", "141226.203000", "141226.203000", "141226.203000", "141226.218000", "141226.218000", "141226.218000", "141226.218000", "141226.218000", "141226.218000", "141226.218000", "141226.218000", "141226.234000", "141226.234000", "141226.234000", "141226.234000", "141226.234000", "141226.234000", "141226.250000", "141226.250000", "141226.250000", "141306.171000", "141306.171000", "141306.171000", "141306.187000", "141306.187000", "141306.187000", "141306.187000", "141306.187000", "141306.203000", "141306.203000", "141306.203000", "141306.203000", "141306.203000", "141306.203000", "141306.218000", "141306.218000", "141306.218000", "141306.218000", "141306.218000", "141306.218000", "141346.171000", "141346.187000", "141346.187000", "141346.187000", "141346.187000", "141346.187000", "141346.203000", "141346.203000", "141346.203000", "141346.203000", "141346.203000", "141346.218000", "141346.218000", "141346.218000", "141346.218000", "141346.218000", "141346.218000", "141346.218000", "141346.218000", "141346.234000", "141426.171000", "141426.171000", "141426.171000", "141426.171000", "141426.171000", "141426.187000", "141426.187000", "141426.187000", "141426.187000", "141426.187000", "141426.187000", "141426.187000", "141426.187000", "141426.203000", "141426.203000", "141426.203000", "141426.203000", "141426.203000", "141426.203000", "141426.203000", "141506.171000", "141506.187000", "141506.187000", "141506.187000", "141506.187000", "141506.203000", "141506.203000", "141506.203000", "141506.218000", "141506.218000", "141506.218000", "141506.218000", "141506.218000", "141506.218000", "141506.218000", "141506.218000", "141506.234000", "141506.234000", "141506.234000", "141506.234000", "141546.171000", "141546.171000", "141546.171000", "141546.171000", "141546.171000", "141546.187000", "141546.187000", "141546.187000", "141546.187000", "141546.187000", "141546.187000", "141546.187000", "141546.203000", "141546.203000", "141546.203000", "141546.203000", "141546.203000", "141546.203000", "141546.203000", "141546.203000", "141626.171000", "141626.187000", "141626.187000", "141626.187000", "141626.203000", "141626.203000", "141626.203000", "141626.203000", "141626.203000", "141626.203000", "141626.203000", "141626.218000", "141626.218000", "141626.218000", "141626.218000", "141626.218000", "141626.218000", "141626.218000", "141626.218000", "141626.234000", "141701.796000", "141701.796000", "141701.796000", "141701.812000", "141701.812000", "141701.812000", "141701.812000", "141701.812000", "141701.812000", "141701.828000", "141701.828000", "141701.828000", "141701.828000", "141701.828000", "141701.828000", "141701.828000", "141701.843000", "141701.843000"],
      "InstanceNumber": [1, 2, 3, 4, 5, 6, 7, 8, 9, 10, 11, 12, 13, 14, 15, 16, 17, 18, 19, 20, 21, 22, 23, 24, 25, 26, 27, 28, 29, 30, 31, 32, 33, 34, 35, 36, 37, 38, 39, 40, 41, 42, 43, 44, 45, 46, 47, 48, 49, 50, 51, 52, 53, 54, 55, 56, 57, 58, 59, 60, 61, 62, 63, 64, 65, 66, 67, 68, 69, 70, 71, 72, 73, 74, 75, 76, 77, 78, 79, 80, 81, 82, 83, 84, 85, 86, 87, 88, 89, 90, 91, 92, 93, 94, 95, 96, 97, 98, 99, 100, 101, 102, 103, 104, 105, 106, 107, 108, 109, 110, 111, 112, 113, 114, 115, 116, 117, 118, 119, 120, 121, 122, 123, 124, 125, 126, 127, 128, 129, 130, 131, 132, 133, 134, 135, 136, 137, 138, 139, 140, 141, 142, 143, 144, 145, 146, 147, 148, 149, 150, 151, 152, 153, 154, 155, 156, 157, 158, 159, 160, 161, 162, 163, 164],
      "LargestImagePixelValue": [1788, 1766, 1726, 1664, 1680, 1658, 1657, 1657, 1751, 1693, 1674, 1674, 1750, 1745, 1640, 1663, 1655, 1633, 1655, 1649, 1676, 1652, 1688, 1689, 1670, 1650, 1668, 1674, 1694, 1762, 1703, 1787, 1662, 1760, 1713, 1719, 1706, 1792, 1691, 1679, 1684, 1675, 1725, 1687, 1687, 1725, 1680, 1693, 1726, 1715, 1690, 1704, 1682, 1777, 1729, 1727, 1732, 1749, 1741, 1721, 1771, 1731, 1747, 1762, 1810, 1772, 1769, 1746, 1769, 1767, 1756, 1784, 1748, 1764, 1740, 1770, 1775, 1750, 1755, 1751, 1768, 1751, 1759, 1790, 1774, 1798, 1757, 1777, 1785, 1764, 1773, 1768, 1739, 1783, 1781, 1798, 1782, 1773, 1761, 1769, 1805, 1798, 1804, 1821, 1766, 1781, 1771, 1797, 1767, 1754, 1779, 1753, 1801, 1831, 1796, 1823, 1804, 1807, 1820, 1820, 1806, 1805, 1899, 1789, 1805, 1898, 1796, 1801, 1801, 1792, 1795, 1781, 1849, 1833, 1839, 1847, 1818, 1808, 1827, 1831, 1851, 1836, 2134, 1831, 1837, 1813, 1807, 1839, 1804, 1798, 1806, 1817, 1818, 1818, 1809, 1841, 1831, 1808, 1805, 1823, 1816, 1826, 1798, 1806],
      "WindowCenter": [729.0, 726.0, 725.0, 725.0, 725.0, 723.0, 722.0, 721.0, 723.0, 722.0, 722.0, 721.0, 722.0, 722.0, 722.0, 723.0, 722.0, 722.0, 723.0, 723.0, 723.0, 722.0, 722.0, 725.0, 724.0, 723.0, 722.0, 723.0, 723.0, 725.0, 725.0, 724.0, 724.0, 723.0, 722.0, 722.0, 722.0, 723.0, 722.0, 722.0, 721.0, 721.0, 722.0, 720.0, 720.0, 719.0, 720.0, 720.0, 720.0, 722.0, 721.0, 723.0, 722.0, 723.0, 722.0, 722.0, 722.0, 722.0, 722.0, 723.0, 724.0, 724.0, 724.0, 725.0, 724.0, 724.0, 725.0, 724.0, 724.0, 724.0, 724.0, 725.0, 725.0, 723.0, 723.0, 724.0, 723.0, 723.0, 723.0, 724.0, 723.0, 723.0, 722.0, 721.0, 723.0, 723.0, 724.0, 725.0, 725.0, 725.0, 725.0, 725.0, 724.0, 724.0, 724.0, 726.0, 724.0, 724.0, 724.0, 724.0, 725.0, 725.0, 725.0, 726.0, 725.0, 724.0, 725.0, 725.0, 723.0, 723.0, 724.0, 723.0, 723.0, 725.0, 724.0, 724.0, 722.0, 722.0, 723.0, 723.0, 724.0, 724.0, 724.0, 723.0, 722.0, 723.0, 723.0, 722.0, 724.0, 723.0, 723.0, 722.0, 723.0, 723.0, 724.0, 725.0, 724.0, 721.0, 723.0, 724.0, 723.0, 722.0, 724.0, 722.0, 722.0, 722.0, 722.0, 721.0, 722.0, 723.0, 723.0, 724.0, 724.0, 724.0, 723.0, 724.0, 724.0, 723.0, 723.0, 724.0, 723.0, 724.0, 723.0, 723.0],
      "WindowWidth": [1574.0, 1565.0, 1562.0, 1560.0, 1560.0, 1556.0, 1554.0, 1551.0, 1554.0, 1553.0, 1553.0, 1550.0, 1552.0, 1553.0, 1551.0, 1555.0, 1554.0, 1551.0, 1555.0, 1554.0, 1555.0, 1553.0, 1553.0, 1562.0, 1558.0, 1555.0, 1552.0, 1555.0, 1557.0, 1561.0, 1561.0, 1559.0, 1558.0, 1556.0, 1554.0, 1553.0, 1552.0, 1555.0, 1554.0, 1552.0, 1552.0, 1550.0, 1552.0, 1549.0, 1547.0, 1545.0, 1549.0, 1548.0, 1549.0, 1554.0, 1552.0, 1556.0, 1554.0, 1555.0, 1553.0, 1553.0, 1554.0, 1555.0, 1554.0, 1556.0, 1560.0, 1558.0, 1560.0, 1562.0, 1559.0, 1560.0, 1561.0, 1559.0, 1560.0, 1559.0, 1560.0, 1561.0, 1561.0, 1557.0, 1556.0, 1559.0, 1558.0, 1557.0, 1558.0, 1559.0, 1557.0, 1556.0, 1553.0, 1553.0, 1556.0, 1558.0, 1559.0, 1561.0, 1562.0, 1562.0, 1563.0, 1561.0, 1558.0, 1559.0, 1561.0, 1563.0, 1560.0, 1559.0, 1559.0, 1560.0, 1561.0, 1562.0, 1562.0, 1564.0, 1561.0, 1560.0, 1561.0, 1561.0, 1557.0, 1557.0, 1559.0, 1557.0, 1557.0, 1561.0, 1559.0, 1560.0, 1555.0, 1553.0, 1557.0, 1557.0, 1560.0, 1558.0, 1559.0, 1556.0, 1553.0, 1556.0, 1555.0, 1554.0, 1558.0, 1556.0, 1555.0, 1553.0, 1556.0, 1557.0, 1560.0, 1561.0, 1560.0, 1552.0, 1556.0, 1559.0, 1556.0, 1554.0, 1559.0, 1554.0, 1555.0, 1555.0, 1553.0, 1551.0, 1553.0, 1556.0, 1556.0, 1560.0, 1559.0, 1559.0, 1557.0, 1558.0, 1559.0, 1556.0, 1556.0, 1558.0, 1558.0, 1559.0, 1557.0, 1556.0]
    },
    "slices": {}
  }
}