{
  "AcquisitionMatrixPE": 64,
  "AcquisitionNumber": 1,
  "AcquisitionTime": "11:55:28.685000",
  "BandwidthPerPixelPhaseEncode": 33.967,
  "BaseResolution": 64,
  "CoilCombinationMethod": "Sum of Squares",
  "CoilString": "C:HEA;HEP",
  "ConversionSoftware": "dcm2niix",
  "ConversionSoftwareVersion": "v1.0.20220720",
  "DerivedVendorReportedEchoSpacing": 0.000460005,
  "DeviceSerialNumber": "35193",
  "DwellTime": 3.1e-06,
  "EchoTime": 0.03,
  "EffectiveEchoSpacing": 0.000460005,
  "FlipAngle": 90,
  "HeudiconvVersion": "1.1.6",
  "ImageOrientationPatientDICOM": [1, 0, 0, 0, 1, 0],
  "ImageOrientationText": "Tra",
  "ImageType": [
    "ORIGINAL",
    "PRIMARY",
    "M",
    "ND",
    "MOSAIC"
],
  "ImagingFrequency": 123.254,
  "InPlanePhaseEncodingDirectionDICOM": "COL",
  "InstitutionAddress": "Xinjiekouwai Street No 19,Beijing,Haidian District,CN,100875",
  "InstitutionName": "BNU MRI Center",
  "InstitutionalDepartmentName": "Department",
  "MRAcquisitionType": "2D",
  "MagneticFieldStrength": 3,
  "Manufacturer": "Siemens",
  "ManufacturersModelName": "TrioTim",
  "MatrixCoilMode": "SENSE",
  "Modality": "MR",
  "NonlinearGradientCorrection": false,
  "PartialFourier": 1,
  "PatientPosition": "HFS",
  "PercentPhaseFOV": 100,
  "PercentSampling": 100,
  "PhaseEncodingDirection": "j-",
  "PhaseEncodingSteps": 64,
  "PhaseResolution": 1,
  "PixelBandwidth": 2520,
  "ProcedureStepDescription": "BNU_cst_2015^Guo.TaoMei",
  "ProtocolName": "ge_func_3x3x4_164",
  "PulseSequenceDetails": "%SiemensSeq%\\ep2d_bold",
  "ReceiveCoilName": "HeadMatrix",
  "ReconMatrixPE": 64,
  "RepetitionTime": 2,
  "SAR": 0.120442,
  "ScanOptions": "FS",
  "ScanningSequence": "EP",
  "SequenceName": "*epfid2d1_64",
  "SequenceVariant": "SK",
  "SeriesDescription": "ge_func_3x3x4_164",
  "SeriesNumber": 4,
  "ShimSetting": [-4481, -19435, -9925, 1061, -190, -721, 86, -85],
  "SliceThickness": 4,
  "SliceTiming": [0, 1.035, 0.0625, 1.095, 0.1225, 1.1575, 0.1825, 1.2175, 0.245, 1.2775, 0.305, 1.34, 0.365, 1.4, 0.4275, 1.46, 0.4875, 1.5225, 0.5475, 1.5825, 0.61, 1.6425, 0.67, 1.705, 0.73, 1.765, 0.7925, 1.825, 0.8525, 1.8875, 0.9125, 1.9475, 0.975],
  "SoftwareVersions": "syngo MR B17",
  "SpacingBetweenSlices": 4.6,
  "StationName": "MRC35193",
  "TaskName": "LanguageControl",
  "TotalReadoutTime": 0.0289803,
  "TxRefAmp": 336.795,
  "dcmmeta_affine": [
    [-3.125, 0.0, 0.0, 100.0],
    [0.0, 3.125, 0.0, -76.634033203125],
    [0.0, 0.0, 4.599999904632568, -81.02169036865234],
    [0.0, 0.0, 0.0, 1.0]
],
  "dcmmeta_reorient_transform": [
    [0.0, -1.0, 0.0, 63.0],
    [1.0, 0.0, 0.0, 0.0],
    [0.0, 0.0, 1.0, 0.0],
    [0.0, 0.0, 0.0, 1.0]
],
  "dcmmeta_shape": [64, 64, 33, 164],
  "dcmmeta_slice_dim": 2,
  "dcmmeta_version": 0.6,
  "global": {
    "const": {
      "AcquisitionMatrix": [64, 0, 0, 64],
      "AngioFlag": "N",
      "BitsAllocated": 16,
      "BitsStored": 12,
      "Columns": 384,
      "EchoNumbers": 1,
      "EchoTime": 30.0,
      "EchoTrainLength": 1,
      "FlipAngle": 90.0,
      "HighBit": 11,
      "ImageOrientationPatient": [1.0, 0.0, 0.0, 0.0, 1.0, 0.0],
      "ImagePositionPatient": [-600.0, -620.24096298218, -81.021690368652],
      "ImageType": [
        "ORIGINAL",
        "PRIMARY",
        "M",
        "ND",
        "MOSAIC"
],
      "ImagedNucleus": "1H",
      "ImagingFrequency": 123.253725,
      "InPlanePhaseEncodingDirection": "COL",
      "MRAcquisitionType": "2D",
      "MagneticFieldStrength": 3.0,
      "Manufacturer": "SIEMENS",
      "ManufacturerModelName": "TrioTim",
      "Modality": "MR",
      "NumberOfAverages": 1.0,
      "NumberOfPhaseEncodingSteps": 64,
      "PercentPhaseFieldOfView": 100.0,
      "PercentSampling": 100.0,
      "PerformedProcedureStepStartTime": "113956.171000",
      "PhotometricInterpretation": "MONOCHROME2",
      "PixelBandwidth": 2520.0,
      "PixelRepresentation": 0,
      "PixelSpacing": [3.125, 3.125],
      "ProtocolName": "ge_func_3x3x4_164",
      "RepetitionTime": 2000.0,
      "Rows": 384,
      "SAR": 0.12044166724425,
      "SamplesPerPixel": 1,
      "ScanOptions": "FS",
      "ScanningSequence": "EP",
      "SequenceName": "*epfid2d1_64",
      "SequenceVariant": "SK",
      "SeriesDescription": "ge_func_3x3x4_164",
      "SeriesNumber": 4,
      "SeriesTime": "115626.921000",
      "SliceLocation": -81.021690368652,
      "SliceThickness": 4.0,
      "SmallestImagePixelValue": 0,
      "SoftwareVersions": "syngo MR B17",
      "SpacingBetweenSlices": 4.6000001430511,
      "SpecificCharacterSet": "ISO_IR 100",
      "StudyID": "1",
      "StudyTime": "113955.421000",
      "TransmitCoilName": "Body",
      "VariableFlipAngleFlag": "N",
      "WindowCenterWidthExplanation": "Algo1",
      "dBdt": 0.0},
    "slices": {}
  },
  "time": {
    "samples": {
      "AcquisitionNumber": [1, 2, 3, 4, 5, 6, 7, 8, 9, 10, 11, 12, 13, 14, 15, 16, 17, 18, 19, 20, 21, 22, 23, 24, 25, 26, 27, 28, 29, 30, 31, 32, 33, 34, 35, 36, 37, 38, 39, 40, 41, 42, 43, 44, 45, 46, 47, 48, 49, 50, 51, 52, 53, 54, 55, 56, 57, 58, 59, 60, 61, 62, 63, 64, 65, 66, 67, 68, 69, 70, 71, 72, 73, 74, 75, 76, 77, 78, 79, 80, 81, 82, 83, 84, 85, 86, 87, 88, 89, 90, 91, 92, 93, 94, 95, 96, 97, 98, 99, 100, 101, 102, 103, 104, 105, 106, 107, 108, 109, 110, 111, 112, 113, 114, 115, 116, 117, 118, 119, 120, 121, 122, 123, 124, 125, 126, 127, 128, 129, 130, 131, 132, 133, 134, 135, 136, 137, 138, 139, 140, 141, 142, 143, 144, 145, 146, 147, 148, 149, 150, 151, 152, 153, 154, 155, 156, 157, 158, 159, 160, 161, 162, 163, 164],
      "AcquisitionTime": ["115528.685000", "115530.695000", "115532.702500", "115534.710000", "115536.717500", "115538.727500", "115540.735000", "115542.742500", "115544.750000", "115546.757500", "115548.767500", "115550.775000", "115552.782500", "115554.790000", "115556.797500", "115558.807500", "115600.815000", "115602.822500", "115604.830000", "115606.837500", "115608.847500", "115610.855000", "115612.862500", "115614.870000", "115616.880000", "115618.887500", "115620.895000", "115622.902500", "115624.910000", "115626.920000", "115628.927500", "115630.935000", "115632.942500", "115634.950000", "115636.960000", "115638.967500", "115640.975000", "115642.982500", "115644.992500", "115647.000000", "115649.007500", "115651.015000", "115653.022500", "115655.032500", "115657.040000", "115659.047500", "115701.055000", "115703.062500", "115705.072500", "115707.080000", "115709.087500", "115711.095000", "115713.105000", "115715.112500", "115717.120000", "115719.127500", "115721.135000", "115723.145000", "115725.152500", "115727.160000", "115729.167500", "115731.175000", "115733.185000", "115735.192500", "115737.200000", "115739.207500", "115741.215000", "115743.225000", "115745.232500", "115747.240000", "115749.247500", "115751.257500", "115753.265000", "115755.272500", "115757.280000", "115759.287500", "115801.297500", "115803.305000", "115805.312500", "115807.320000", "115809.327500", "115811.337500", "115813.345000", "115815.352500", "115817.360000", "115819.370000", "115821.377500", "115823.385000", "115825.392500", "115827.400000", "115829.410000", "115831.417500", "115833.425000", "115835.432500", "115837.440000", "115839.450000", "115841.457500", "115843.465000", "115845.472500", "115847.482500", "115849.490000", "115851.497500", "115853.505000", "115855.512500", "115857.522500", "115859.530000", "115901.537500", "115903.545000", "115905.552500", "115907.562500", "115909.570000", "115911.577500", "115913.585000", "115915.592500", "115917.602500", "115919.610000", "115921.617500", "115923.625000", "115925.635000", "115927.642500", "115929.650000", "115931.657500", "115933.665000", "115935.675000", "115937.682500", "115939.690000", "115941.697500", "115943.705000", "115945.715000", "115947.722500", "115949.730000", "115951.737500", "115953.747500", "115955.755000", "115957.762500", "115959.770000", "120001.777500", "120003.787500", "120005.795000", "120007.802500", "120009.810000", "120011.817500", "120013.827500", "120015.835000", "120017.842500", "120019.850000", "120021.860000", "120023.867500", "120025.875000", "120027.882500", "120029.890000", "120031.900000", "120033.907500", "120035.915000", "120037.922500", "120039.930000", "120041.940000", "120043.947500", "120045.955000", "120047.962500", "120049.970000", "120051.980000", "120053.987500", "120055.995000"],
      "ContentTime": ["115626.937000", "115626.937000", "115626.937000", "115626.937000", "115626.937000", "115626.937000", "115626.953000", "115626.953000", "115626.953000", "115626.953000", "115626.953000", "115626.953000", "115626.953000", "115626.953000", "115626.953000", "115626.968000", "115626.968000", "115626.968000", "115626.968000", "115626.984000", "115626.984000", "115626.984000", "115626.984000", "115626.984000", "115627.000000", "115627.000000", "115627.000000", "115627.000000", "115646.921000", "115646.937000", "115646.937000", "115646.937000", "115646.937000", "115646.937000", "115646.937000", "115646.937000", "115646.937000", "115646.953000", "115726.921000", "115726.921000", "115726.937000", "115726.937000", "115726.937000", "115726.937000", "115726.937000", "115726.953000", "115726.953000", "115726.953000", "115726.953000", "115726.953000", "115726.953000", "115726.953000", "115726.953000", "115726.968000", "115726.968000", "115726.968000", "115726.968000", "115726.968000", "115806.921000", "115806.921000", "115806.937000", "115806.937000", "115806.937000", "115806.937000", "115806.953000", "115806.953000", "115806.953000", "115806.953000", "115806.953000", "115806.953000", "115806.953000", "115806.968000", "115806.968000", "115806.968000", "115806.968000", "115806.968000", "115806.984000", "115806.984000", "115846.921000", "115846.921000", "115846.937000", "115846.937000", "115846.937000", "115846.937000", "115846.937000", "115846.953000", "115846.953000", "115846.953000", "115846.953000", "115846.953000", "115846.968000", "115846.968000", "115846.968000", "115846.968000", "115846.968000", "115846.968000", "115846.984000", "115846.984000", "115926.921000", "115926.921000", "115926.937000", "115926.937000", "115926.937000", "115926.937000", "115926.937000", "115926.937000", "115926.937000", "115926.937000", "115926.953000", "115926.953000", "115926.953000", "115926.953000", "115926.953000", "115926.953000", "115926.953000", "115926.953000", "115926.968000", "115926.968000", "120006.921000", "120006.921000", "120006.937000", "120006.937000", "120006.937000", "120006.937000", "120006.937000", "120006.937000", "120006.937000", "120006.937000", "120006.953000", "120006.953000", "120006.953000", "120006.953000", "120006.953000", "120006.953000", "120006.953000", "120006.953000", "120006.968000", "120006.968000", "120046.921000", "120046.921000", "120046.937000", "120046.937000", "120046.937000", "120046.937000", "120046.937000", "120046.937000", "120046.937000", "120046.953000", "120046.953000", "120046.953000", "120046.953000", "120046.953000", "120046.953000", "120046.953000", "120046.953000", "120046.968000", "120046.968000", "120046.968000", "120057.359000", "120057.359000", "120057.375000", "120057.375000", "120057.375000", "120057.375000"],
      "InstanceCreationTime": ["115626.937000", "115626.937000", "115626.937000", "115626.937000", "115626.937000", "115626.937000", "115626.953000", "115626.953000", "115626.953000", "115626.953000", "115626.953000", "115626.953000", "115626.953000", "115626.953000", "115626.953000", "115626.968000", "115626.968000", "115626.968000", "115626.968000", "115626.984000", "115626.984000", "115626.984000", "115626.984000", "115626.984000", "115627.000000", "115627.000000", "115627.000000", "115627.000000", "115646.921000", "115646.937000", "115646.937000", "115646.937000", "115646.937000", "115646.937000", "115646.937000", "115646.937000", "115646.937000", "115646.953000", "115726.921000", "115726.921000", "115726.937000", "115726.937000", "115726.937000", "115726.937000", "115726.937000", "115726.953000", "115726.953000", "115726.953000", "115726.953000", "115726.953000", "115726.953000", "115726.953000", "115726.953000", "115726.968000", "115726.968000", "115726.968000", "115726.968000", "115726.968000", "115806.921000", "115806.921000", "115806.937000", "115806.937000", "115806.937000", "115806.937000", "115806.953000", "115806.953000", "115806.953000", "115806.953000", "115806.953000", "115806.953000", "115806.953000", "115806.968000", "115806.968000", "115806.968000", "115806.968000", "115806.968000", "115806.984000", "115806.984000", "115846.921000", "115846.921000", "115846.937000", "115846.937000", "115846.937000", "115846.937000", "115846.937000", "115846.953000", "115846.953000", "115846.953000", "115846.953000", "115846.953000", "115846.968000", "115846.968000", "115846.968000", "115846.968000", "115846.968000", "115846.968000", "115846.984000", "115846.984000", "115926.921000", "115926.921000", "115926.937000", "115926.937000", "115926.937000", "115926.937000", "115926.937000", "115926.937000", "115926.937000", "115926.937000", "115926.953000", "115926.953000", "115926.953000", "115926.953000", "115926.953000", "115926.953000", "115926.953000", "115926.953000", "115926.968000", "115926.968000", "120006.921000", "120006.921000", "120006.937000", "120006.937000", "120006.937000", "120006.937000", "120006.937000", "120006.937000", "120006.937000", "120006.937000", "120006.953000", "120006.953000", "120006.953000", "120006.953000", "120006.953000", "120006.953000", "120006.953000", "120006.953000", "120006.968000", "120006.968000", "120046.921000", "120046.921000", "120046.937000", "120046.937000", "120046.937000", "120046.937000", "120046.937000", "120046.937000", "120046.937000", "120046.953000", "120046.953000", "120046.953000", "120046.953000", "120046.953000", "120046.953000", "120046.953000", "120046.953000", "120046.968000", "120046.968000", "120046.968000", "120057.359000", "120057.359000", "120057.375000", "120057.375000", "120057.375000", "120057.375000"],
      "InstanceNumber": [1, 2, 3, 4, 5, 6, 7, 8, 9, 10, 11, 12, 13, 14, 15, 16, 17, 18, 19, 20, 21, 22, 23, 24, 25, 26, 27, 28, 29, 30, 31, 32, 33, 34, 35, 36, 37, 38, 39, 40, 41, 42, 43, 44, 45, 46, 47, 48, 49, 50, 51, 52, 53, 54, 55, 56, 57, 58, 59, 60, 61, 62, 63, 64, 65, 66, 67, 68, 69, 70, 71, 72, 73, 74, 75, 76, 77, 78, 79, 80, 81, 82, 83, 84, 85, 86, 87, 88, 89, 90, 91, 92, 93, 94, 95, 96, 97, 98, 99, 100, 101, 102, 103, 104, 105, 106, 107, 108, 109, 110, 111, 112, 113, 114, 115, 116, 117, 118, 119, 120, 121, 122, 123, 124, 125, 126, 127, 128, 129, 130, 131, 132, 133, 134, 135, 136, 137, 138, 139, 140, 141, 142, 143, 144, 145, 146, 147, 148, 149, 150, 151, 152, 153, 154, 155, 156, 157, 158, 159, 160, 161, 162, 163, 164],
      "LargestImagePixelValue": [1766, 1725, 1698, 1693, 1654, 1665, 1670, 1682, 1680, 1658, 1679, 1676, 1665, 1680, 1680, 1650, 1668, 1682, 1683, 1674, 1664, 1685, 1694, 1683, 1679, 1687, 1670, 1684, 1671, 1669, 1689, 1692, 1676, 1656, 1680, 1676, 1676, 1661, 1676, 1695, 1678, 1670, 1677, 1680, 1678, 1666, 1683, 1664, 1665, 1658, 1670, 1665, 1679, 1666, 1670, 1674, 1679, 1674, 1661, 1669, 1682, 1661, 1677, 1687, 1677, 1682, 1673, 1676, 1663, 1662, 1662, 1670, 1665, 1666, 1666, 1664, 1674, 1678, 1671, 1680, 1669, 1679, 1676, 1670, 1660, 1657, 1656, 1668, 1658, 1652, 1678, 1682, 1674, 1674, 1686, 1695, 1697, 1678, 1698, 1694, 1668, 1744, 1694, 1683, 1690, 1676, 1665, 1699, 1697, 1680, 1688, 1681, 1697, 1678, 1673, 1675, 1704, 1681, 1679, 1704, 1696, 1702, 1693, 1686, 1672, 1693, 1675, 1685, 1669, 1672, 1670, 1697, 1668, 1670, 1679, 1691, 1675, 1682, 1679, 1679, 1669, 1667, 1682, 1672, 1673, 1669, 1670, 1677, 1682, 1666, 1681, 1687, 1692, 1685, 1675, 1698, 1690, 1685, 1688, 1697, 1693, 1706, 1699, 1711],
      "WindowCenter": [705.0, 704.0, 704.0, 704.0, 704.0, 704.0, 703.0, 703.0, 703.0, 703.0, 704.0, 704.0, 704.0, 704.0, 704.0, 703.0, 703.0, 704.0, 703.0, 703.0, 703.0, 704.0, 704.0, 703.0, 703.0, 703.0, 703.0, 703.0, 703.0, 703.0, 703.0, 703.0, 703.0, 702.0, 703.0, 703.0, 703.0, 703.0, 703.0, 703.0, 703.0, 703.0, 703.0, 703.0, 702.0, 702.0, 703.0, 703.0, 702.0, 702.0, 702.0, 702.0, 702.0, 703.0, 703.0, 704.0, 704.0, 703.0, 703.0, 703.0, 703.0, 702.0, 703.0, 703.0, 703.0, 703.0, 703.0, 703.0, 703.0, 703.0, 703.0, 702.0, 702.0, 701.0, 701.0, 702.0, 702.0, 703.0, 703.0, 704.0, 704.0, 703.0, 703.0, 703.0, 704.0, 704.0, 704.0, 704.0, 704.0, 704.0, 704.0, 704.0, 704.0, 703.0, 703.0, 704.0, 704.0, 704.0, 705.0, 705.0, 704.0, 704.0, 704.0, 704.0, 705.0, 704.0, 704.0, 704.0, 703.0, 703.0, 703.0, 703.0, 703.0, 704.0, 703.0, 704.0, 704.0, 704.0, 704.0, 704.0, 704.0, 704.0, 703.0, 704.0, 704.0, 704.0, 704.0, 704.0, 703.0, 702.0, 703.0, 703.0, 703.0, 703.0, 703.0, 703.0, 703.0, 703.0, 703.0, 704.0, 703.0, 703.0, 704.0, 704.0, 704.0, 704.0, 704.0, 704.0, 704.0, 704.0, 705.0, 705.0, 705.0, 704.0, 705.0, 705.0, 705.0, 704.0, 705.0, 705.0, 704.0, 704.0, 704.0, 704.0],
      "WindowWidth": [1550.0, 1546.0, 1547.0, 1547.0, 1546.0, 1545.0, 1545.0, 1544.0, 1544.0, 1544.0, 1547.0, 1546.0, 1545.0, 1546.0, 1545.0, 1544.0, 1544.0, 1545.0, 1545.0, 1544.0, 1545.0, 1545.0, 1548.0, 1545.0, 1544.0, 1543.0, 1543.0, 1544.0, 1544.0, 1543.0, 1543.0, 1544.0, 1543.0, 1542.0, 1544.0, 1544.0, 1545.0, 1545.0, 1545.0, 1545.0, 1543.0, 1543.0, 1543.0, 1543.0, 1542.0, 1541.0, 1545.0, 1543.0, 1539.0, 1540.0, 1540.0, 1540.0, 1542.0, 1543.0, 1543.0, 1546.0, 1545.0, 1545.0, 1543.0, 1543.0, 1542.0, 1542.0, 1542.0, 1543.0, 1543.0, 1545.0, 1544.0, 1543.0, 1543.0, 1543.0, 1543.0, 1541.0, 1540.0, 1538.0, 1539.0, 1542.0, 1542.0, 1542.0, 1545.0, 1546.0, 1545.0, 1544.0, 1542.0, 1543.0, 1545.0, 1547.0, 1546.0, 1546.0, 1547.0, 1546.0, 1546.0, 1547.0, 1546.0, 1545.0, 1544.0, 1546.0, 1546.0, 1547.0, 1549.0, 1548.0, 1545.0, 1546.0, 1546.0, 1546.0, 1548.0, 1547.0, 1546.0, 1546.0, 1545.0, 1544.0, 1544.0, 1544.0, 1544.0, 1545.0, 1544.0, 1546.0, 1547.0, 1547.0, 1547.0, 1547.0, 1546.0, 1545.0, 1545.0, 1545.0, 1546.0, 1547.0, 1547.0, 1545.0, 1544.0, 1541.0, 1542.0, 1544.0, 1542.0, 1543.0, 1544.0, 1544.0, 1544.0, 1544.0, 1544.0, 1546.0, 1544.0, 1544.0, 1545.0, 1546.0, 1546.0, 1545.0, 1546.0, 1546.0, 1547.0, 1546.0, 1548.0, 1548.0, 1548.0, 1547.0, 1548.0, 1551.0, 1548.0, 1547.0, 1550.0, 1548.0, 1545.0, 1545.0, 1545.0, 1545.0]
    },
    "slices": {}
  }
}