{
  "AcquisitionMatrixPE": 64,
  "AcquisitionNumber": 1,
  "AcquisitionTime": "09:19:6.840000",
  "BandwidthPerPixelPhaseEncode": 33.967,
  "BaseResolution": 64,
  "CoilCombinationMethod": "Sum of Squares",
  "CoilString": "C:HEA;HEP",
  "ConversionSoftware": "dcm2niix",
  "ConversionSoftwareVersion": "v1.0.20220720",
  "DerivedVendorReportedEchoSpacing": 0.000460005,
  "DeviceSerialNumber": "35193",
  "DwellTime": 3.1e-06,
  "EchoTime": 0.03,
  "EffectiveEchoSpacing": 0.000460005,
  "FlipAngle": 90,
  "HeudiconvVersion": "1.1.6",
  "ImageOrientationPatientDICOM": [1, 0, 0, 0, 1, 0],
  "ImageOrientationText": "Tra",
  "ImageType": [
    "ORIGINAL",
    "PRIMARY",
    "M",
    "ND",
    "MOSAIC"
],
  "ImagingFrequency": 123.254,
  "InPlanePhaseEncodingDirectionDICOM": "COL",
  "InstitutionAddress": "Xinjiekouwai Street No 19,Beijing,Haidian District,CN,100875",
  "InstitutionName": "BNU MRI Center",
  "InstitutionalDepartmentName": "Department",
  "MRAcquisitionType": "2D",
  "MagneticFieldStrength": 3,
  "Manufacturer": "Siemens",
  "ManufacturersModelName": "TrioTim",
  "MatrixCoilMode": "SENSE",
  "Modality": "MR",
  "NonlinearGradientCorrection": false,
  "PartialFourier": 1,
  "PatientPosition": "HFS",
  "PercentPhaseFOV": 100,
  "PercentSampling": 100,
  "PhaseEncodingDirection": "j-",
  "PhaseEncodingSteps": 64,
  "PhaseResolution": 1,
  "PixelBandwidth": 2520,
  "ProcedureStepDescription": "BNU_cst_2015^Guo.TaoMei",
  "ProtocolName": "ge_func_3x3x4_164",
  "PulseSequenceDetails": "%SiemensSeq%\\ep2d_bold",
  "ReceiveCoilName": "HeadMatrix",
  "ReconMatrixPE": 64,
  "RepetitionTime": 2,
  "SAR": 0.132175,
  "ScanOptions": "FS",
  "ScanningSequence": "EP",
  "SequenceName": "*epfid2d1_64",
  "SequenceVariant": "SK",
  "SeriesDescription": "ge_func_3x3x4_164",
  "SeriesNumber": 5,
  "ShimSetting": [-4482, -19338, -9881, 871, -138, -297, -249, 116],
  "SliceThickness": 4,
  "SliceTiming": [0, 1.035, 0.0625, 1.095, 0.1225, 1.1575, 0.1825, 1.2175, 0.245, 1.2775, 0.305, 1.34, 0.365, 1.4, 0.4275, 1.46, 0.4875, 1.5225, 0.5475, 1.5825, 0.61, 1.6425, 0.67, 1.705, 0.73, 1.765, 0.7925, 1.825, 0.8525, 1.8875, 0.9125, 1.9475, 0.975],
  "SoftwareVersions": "syngo MR B17",
  "SpacingBetweenSlices": 4.6,
  "StationName": "MRC35193",
  "TaskName": "LanguageControl",
  "TotalReadoutTime": 0.0289803,
  "TxRefAmp": 350.591,
  "dcmmeta_affine": [
    [-3.125, 0.0, 0.0, 107.42168426513672],
    [0.0, 3.125, 0.0, -84.73042297363281],
    [0.0, 0.0, 4.599999904632568, -67.5277099609375],
    [0.0, 0.0, 0.0, 1.0]
],
  "dcmmeta_reorient_transform": [
    [0.0, -1.0, 0.0, 63.0],
    [1.0, 0.0, 0.0, 0.0],
    [0.0, 0.0, 1.0, 0.0],
    [0.0, 0.0, 0.0, 1.0]
],
  "dcmmeta_shape": [64, 64, 33, 164],
  "dcmmeta_slice_dim": 2,
  "dcmmeta_version": 0.6,
  "global": {
    "const": {
      "AcquisitionMatrix": [64, 0, 0, 64],
      "AngioFlag": "N",
      "BitsAllocated": 16,
      "BitsStored": 12,
      "Columns": 384,
      "EchoNumbers": 1,
      "EchoTime": 30.0,
      "EchoTrainLength": 1,
      "FlipAngle": 90.0,
      "HighBit": 11,
      "ImageOrientationPatient": [1.0, 0.0, 0.0, 0.0, 1.0, 0.0],
      "ImagePositionPatient": [-607.42168664932, -612.14457798004, -67.527709960938],
      "ImageType": [
        "ORIGINAL",
        "PRIMARY",
        "M",
        "ND",
        "MOSAIC"
],
      "ImagedNucleus": "1H",
      "ImagingFrequency": 123.253629,
      "InPlanePhaseEncodingDirection": "COL",
      "MRAcquisitionType": "2D",
      "MagneticFieldStrength": 3.0,
      "Manufacturer": "SIEMENS",
      "ManufacturerModelName": "TrioTim",
      "Modality": "MR",
      "NumberOfAverages": 1.0,
      "NumberOfPhaseEncodingSteps": 64,
      "PercentPhaseFieldOfView": 100.0,
      "PercentSampling": 100.0,
      "PerformedProcedureStepStartTime": "084910.281000",
      "PhotometricInterpretation": "MONOCHROME2",
      "PixelBandwidth": 2520.0,
      "PixelRepresentation": 0,
      "PixelSpacing": [3.125, 3.125],
      "ProtocolName": "ge_func_3x3x4_164",
      "RepetitionTime": 2000.0,
      "Rows": 384,
      "SAR": 0.132174693406,
      "SamplesPerPixel": 1,
      "ScanOptions": "FS",
      "ScanningSequence": "EP",
      "SequenceName": "*epfid2d1_64",
      "SequenceVariant": "SK",
      "SeriesDescription": "ge_func_3x3x4_164",
      "SeriesNumber": 5,
      "SeriesTime": "091942.484000",
      "SliceLocation": -67.527709960938,
      "SliceThickness": 4.0,
      "SmallestImagePixelValue": 0,
      "SoftwareVersions": "syngo MR B17",
      "SpacingBetweenSlices": 4.5999999046326,
      "SpecificCharacterSet": "ISO_IR 100",
      "StudyID": "1",
      "StudyTime": "084910.234000",
      "TransmitCoilName": "Body",
      "VariableFlipAngleFlag": "N",
      "WindowCenterWidthExplanation": "Algo1",
      "dBdt": 0.0},
    "slices": {}
  },
  "time": {
    "samples": {
      "AcquisitionNumber": [1, 2, 3, 4, 5, 6, 7, 8, 9, 10, 11, 12, 13, 14, 15, 16, 17, 18, 19, 20, 21, 22, 23, 24, 25, 26, 27, 28, 29, 30, 31, 32, 33, 34, 35, 36, 37, 38, 39, 40, 41, 42, 43, 44, 45, 46, 47, 48, 49, 50, 51, 52, 53, 54, 55, 56, 57, 58, 59, 60, 61, 62, 63, 64, 65, 66, 67, 68, 69, 70, 71, 72, 73, 74, 75, 76, 77, 78, 79, 80, 81, 82, 83, 84, 85, 86, 87, 88, 89, 90, 91, 92, 93, 94, 95, 96, 97, 98, 99, 100, 101, 102, 103, 104, 105, 106, 107, 108, 109, 110, 111, 112, 113, 114, 115, 116, 117, 118, 119, 120, 121, 122, 123, 124, 125, 126, 127, 128, 129, 130, 131, 132, 133, 134, 135, 136, 137, 138, 139, 140, 141, 142, 143, 144, 145, 146, 147, 148, 149, 150, 151, 152, 153, 154, 155, 156, 157, 158, 159, 160, 161, 162, 163, 164],
      "AcquisitionTime": ["091906.840000", "091908.850000", "091910.857500", "091912.865000", "091914.872500", "091916.880000", "091918.890000", "091920.897500", "091922.905000", "091924.912500", "091926.920000", "091928.930000", "091930.937500", "091932.945000", "091934.952500", "091936.962500", "091938.970000", "091940.977500", "091942.985000", "091944.992500", "091947.002500", "091949.010000", "091951.017500", "091953.025000", "091955.032500", "091957.042500", "091959.050000", "092001.057500", "092003.065000", "092005.075000", "092007.082500", "092009.090000", "092011.097500", "092013.105000", "092015.115000", "092017.122500", "092019.130000", "092021.137500", "092023.145000", "092025.155000", "092027.162500", "092029.170000", "092031.177500", "092033.187500", "092035.195000", "092037.202500", "092039.210000", "092041.217500", "092043.227500", "092045.235000", "092047.242500", "092049.250000", "092051.257500", "092053.267500", "092055.275000", "092057.282500", "092059.290000", "092101.297500", "092103.307500", "092105.315000", "092107.322500", "092109.330000", "092111.340000", "092113.347500", "092115.355000", "092117.362500", "092119.370000", "092121.380000", "092123.387500", "092125.395000", "092127.402500", "092129.410000", "092131.420000", "092133.427500", "092135.435000", "092137.442500", "092139.452500", "092141.460000", "092143.467500", "092145.475000", "092147.482500", "092149.492500", "092151.500000", "092153.507500", "092155.515000", "092157.522500", "092159.532500", "092201.540000", "092203.547500", "092205.555000", "092207.565000", "092209.572500", "092211.580000", "092213.587500", "092215.595000", "092217.605000", "092219.612500", "092221.620000", "092223.627500", "092225.635000", "092227.645000", "092229.652500", "092231.660000", "092233.667500", "092235.675000", "092237.685000", "092239.692500", "092241.700000", "092243.707500", "092245.717500", "092247.725000", "092249.732500", "092251.740000", "092253.747500", "092255.757500", "092257.765000", "092259.772500", "092301.780000", "092303.787500", "092305.797500", "092307.805000", "092309.812500", "092311.820000", "092313.830000", "092315.837500", "092317.845000", "092319.852500", "092321.860000", "092323.870000", "092325.877500", "092327.885000", "092329.892500", "092331.900000", "092333.910000", "092335.917500", "092337.925000", "092339.932500", "092341.942500", "092343.950000", "092345.957500", "092347.965000", "092349.972500", "092351.982500", "092353.990000", "092355.997500", "092358.005000", "092400.012500", "092402.022500", "092404.030000", "092406.037500", "092408.045000", "092410.052500", "092412.062500", "092414.070000", "092416.077500", "092418.085000", "092420.095000", "092422.102500", "092424.110000", "092426.117500", "092428.125000", "092430.135000", "092432.142500", "092434.150000"],
      "ContentTime": ["091942.484000", "091942.484000", "091942.484000", "091942.484000", "091942.500000", "091942.500000", "091942.500000", "091942.500000", "091942.515000", "091942.515000", "091942.515000", "091942.531000", "091942.531000", "091942.531000", "091942.531000", "091942.531000", "091942.531000", "092022.484000", "092022.484000", "092022.484000", "092022.484000", "092022.484000", "092022.484000", "092022.484000", "092022.500000", "092022.500000", "092022.500000", "092022.500000", "092022.500000", "092022.500000", "092022.500000", "092022.500000", "092022.515000", "092022.515000", "092022.515000", "092022.515000", "092022.515000", "092102.484000", "092102.484000", "092102.484000", "092102.484000", "092102.484000", "092102.484000", "092102.484000", "092102.500000", "092102.500000", "092102.500000", "092102.500000", "092102.500000", "092102.500000", "092102.500000", "092102.500000", "092102.515000", "092102.515000", "092102.515000", "092102.515000", "092102.515000", "092142.484000", "092142.484000", "092142.484000", "092142.500000", "092142.500000", "092142.515000", "092142.515000", "092142.515000", "092142.515000", "092142.531000", "092142.531000", "092142.531000", "092142.531000", "092142.531000", "092142.531000", "092142.531000", "092142.531000", "092142.546000", "092142.546000", "092142.546000", "092222.484000", "092222.484000", "092222.484000", "092222.484000", "092222.484000", "092222.484000", "092222.500000", "092222.500000", "092222.500000", "092222.500000", "092222.500000", "092222.500000", "092222.515000", "092222.515000", "092222.515000", "092222.515000", "092222.515000", "092222.515000", "092222.515000", "092222.515000", "092302.484000", "092302.484000", "092302.500000", "092302.500000", "092302.500000", "092302.500000", "092302.500000", "092302.500000", "092302.515000", "092302.515000", "092302.515000", "092302.515000", "092302.515000", "092302.515000", "092302.515000", "092302.515000", "092302.531000", "092302.531000", "092302.531000", "092302.531000", "092342.484000", "092342.484000", "092342.484000", "092342.484000", "092342.500000", "092342.500000", "092342.500000", "092342.500000", "092342.500000", "092342.500000", "092342.515000", "092342.515000", "092342.515000", "092342.515000", "092342.515000", "092342.515000", "092342.515000", "092342.515000", "092342.531000", "092342.531000", "092422.484000", "092422.484000", "092422.484000", "092422.484000", "092422.484000", "092422.484000", "092422.484000", "092422.500000", "092422.500000", "092422.500000", "092422.500000", "092422.500000", "092422.500000", "092422.500000", "092422.500000", "092422.515000", "092422.515000", "092422.515000", "092422.515000", "092422.515000", "092435.390000", "092435.390000", "092435.406000", "092435.406000", "092435.406000", "092435.406000", "092435.421000"],
      "InstanceCreationTime": ["091942.484000", "091942.484000", "091942.484000", "091942.484000", "091942.500000", "091942.500000", "091942.500000", "091942.500000", "091942.515000", "091942.515000", "091942.515000", "091942.531000", "091942.531000", "091942.531000", "091942.531000", "091942.531000", "091942.531000", "092022.484000", "092022.484000", "092022.484000", "092022.484000", "092022.484000", "092022.484000", "092022.484000", "092022.500000", "092022.500000", "092022.500000", "092022.500000", "092022.500000", "092022.500000", "092022.500000", "092022.500000", "092022.515000", "092022.515000", "092022.515000", "092022.515000", "092022.515000", "092102.484000", "092102.484000", "092102.484000", "092102.484000", "092102.484000", "092102.484000", "092102.484000", "092102.500000", "092102.500000", "092102.500000", "092102.500000", "092102.500000", "092102.500000", "092102.500000", "092102.500000", "092102.515000", "092102.515000", "092102.515000", "092102.515000", "092102.515000", "092142.484000", "092142.484000", "092142.484000", "092142.500000", "092142.500000", "092142.515000", "092142.515000", "092142.515000", "092142.515000", "092142.531000", "092142.531000", "092142.531000", "092142.531000", "092142.531000", "092142.531000", "092142.531000", "092142.531000", "092142.546000", "092142.546000", "092142.546000", "092222.484000", "092222.484000", "092222.484000", "092222.484000", "092222.484000", "092222.484000", "092222.500000", "092222.500000", "092222.500000", "092222.500000", "092222.500000", "092222.500000", "092222.515000", "092222.515000", "092222.515000", "092222.515000", "092222.515000", "092222.515000", "092222.515000", "092222.515000", "092302.484000", "092302.484000", "092302.500000", "092302.500000", "092302.500000", "092302.500000", "092302.500000", "092302.500000", "092302.515000", "092302.515000", "092302.515000", "092302.515000", "092302.515000", "092302.515000", "092302.515000", "092302.515000", "092302.531000", "092302.531000", "092302.531000", "092302.531000", "092342.484000", "092342.484000", "092342.484000", "092342.484000", "092342.500000", "092342.500000", "092342.500000", "092342.500000", "092342.500000", "092342.500000", "092342.515000", "092342.515000", "092342.515000", "092342.515000", "092342.515000", "092342.515000", "092342.515000", "092342.515000", "092342.531000", "092342.531000", "092422.484000", "092422.484000", "092422.484000", "092422.484000", "092422.484000", "092422.484000", "092422.484000", "092422.500000", "092422.500000", "092422.500000", "092422.500000", "092422.500000", "092422.500000", "092422.500000", "092422.500000", "092422.515000", "092422.515000", "092422.515000", "092422.515000", "092422.515000", "092435.390000", "092435.390000", "092435.406000", "092435.406000", "092435.406000", "092435.406000", "092435.421000"],
      "InstanceNumber": [1, 2, 3, 4, 5, 6, 7, 8, 9, 10, 11, 12, 13, 14, 15, 16, 17, 18, 19, 20, 21, 22, 23, 24, 25, 26, 27, 28, 29, 30, 31, 32, 33, 34, 35, 36, 37, 38, 39, 40, 41, 42, 43, 44, 45, 46, 47, 48, 49, 50, 51, 52, 53, 54, 55, 56, 57, 58, 59, 60, 61, 62, 63, 64, 65, 66, 67, 68, 69, 70, 71, 72, 73, 74, 75, 76, 77, 78, 79, 80, 81, 82, 83, 84, 85, 86, 87, 88, 89, 90, 91, 92, 93, 94, 95, 96, 97, 98, 99, 100, 101, 102, 103, 104, 105, 106, 107, 108, 109, 110, 111, 112, 113, 114, 115, 116, 117, 118, 119, 120, 121, 122, 123, 124, 125, 126, 127, 128, 129, 130, 131, 132, 133, 134, 135, 136, 137, 138, 139, 140, 141, 142, 143, 144, 145, 146, 147, 148, 149, 150, 151, 152, 153, 154, 155, 156, 157, 158, 159, 160, 161, 162, 163, 164],
      "LargestImagePixelValue": [1975, 2101, 1910, 1864, 1950, 1861, 1859, 1862, 1857, 1871, 1858, 1900, 1859, 1844, 1856, 1858, 2015, 1841, 1861, 1851, 1855, 1851, 1855, 1851, 1865, 1896, 1849, 1865, 1861, 1864, 1871, 1859, 1941, 1860, 1856, 1869, 1950, 1877, 1867, 1864, 1874, 1880, 1868, 1879, 1893, 1905, 2009, 1888, 1883, 1892, 1900, 1902, 1878, 1918, 1887, 1912, 1895, 1881, 1904, 1879, 1895, 1872, 1927, 1879, 1882, 1977, 1880, 1869, 1881, 1957, 1930, 1894, 1869, 1931, 1892, 1889, 1902, 1903, 1888, 1886, 1881, 1930, 1909, 1894, 1880, 1923, 1927, 1953, 1877, 1897, 1890, 1945, 1894, 1890, 1890, 1902, 1899, 1895, 1886, 1882, 1886, 1968, 1885, 1921, 1900, 1890, 1921, 1942, 1914, 1913, 1897, 1936, 1915, 1911, 1932, 1910, 1924, 1928, 1949, 1931, 1930, 1925, 1915, 1929, 1930, 1906, 1932, 1929, 1938, 1918, 1929, 1934, 1992, 1914, 1905, 1938, 1930, 1920, 2046, 1944, 1895, 1950, 1911, 1955, 1920, 1906, 1922, 1918, 1918, 1900, 1911, 1893, 1912, 1914, 1915, 1913, 1908, 1933, 1916, 1930, 1943, 1918, 1914, 1951],
      "WindowCenter": [765.0, 763.0, 762.0, 761.0, 761.0, 761.0, 760.0, 760.0, 759.0, 759.0, 758.0, 758.0, 757.0, 758.0, 757.0, 757.0, 757.0, 756.0, 757.0, 757.0, 757.0, 758.0, 758.0, 757.0, 758.0, 758.0, 758.0, 758.0, 759.0, 758.0, 759.0, 759.0, 760.0, 759.0, 759.0, 759.0, 760.0, 759.0, 758.0, 759.0, 759.0, 759.0, 759.0, 759.0, 758.0, 758.0, 758.0, 757.0, 757.0, 757.0, 759.0, 759.0, 760.0, 759.0, 758.0, 758.0, 758.0, 759.0, 759.0, 761.0, 761.0, 761.0, 760.0, 760.0, 761.0, 760.0, 760.0, 760.0, 760.0, 760.0, 760.0, 760.0, 759.0, 760.0, 760.0, 760.0, 760.0, 760.0, 759.0, 759.0, 760.0, 760.0, 760.0, 760.0, 761.0, 761.0, 760.0, 760.0, 760.0, 760.0, 760.0, 761.0, 760.0, 760.0, 761.0, 760.0, 761.0, 761.0, 760.0, 759.0, 759.0, 760.0, 760.0, 760.0, 760.0, 759.0, 759.0, 760.0, 760.0, 760.0, 759.0, 760.0, 760.0, 760.0, 761.0, 760.0, 760.0, 760.0, 761.0, 761.0, 761.0, 761.0, 761.0, 761.0, 761.0, 761.0, 761.0, 761.0, 761.0, 761.0, 761.0, 762.0, 762.0, 761.0, 760.0, 761.0, 761.0, 761.0, 761.0, 760.0, 760.0, 760.0, 760.0, 761.0, 761.0, 761.0, 761.0, 761.0, 761.0, 760.0, 761.0, 761.0, 761.0, 762.0, 762.0, 762.0, 762.0, 761.0, 761.0, 761.0, 761.0, 761.0, 762.0, 762.0],
      "WindowWidth": [1674.0, 1669.0, 1663.0, 1662.0, 1661.0, 1659.0, 1658.0, 1658.0, 1655.0, 1655.0, 1653.0, 1653.0, 1650.0, 1651.0, 1650.0, 1650.0, 1651.0, 1647.0, 1649.0, 1649.0, 1650.0, 1652.0, 1651.0, 1650.0, 1651.0, 1652.0, 1651.0, 1653.0, 1654.0, 1653.0, 1654.0, 1655.0, 1657.0, 1656.0, 1653.0, 1654.0, 1658.0, 1655.0, 1653.0, 1655.0, 1656.0, 1654.0, 1655.0, 1656.0, 1653.0, 1653.0, 1652.0, 1650.0, 1649.0, 1650.0, 1656.0, 1656.0, 1657.0, 1655.0, 1653.0, 1653.0, 1653.0, 1655.0, 1656.0, 1660.0, 1661.0, 1659.0, 1659.0, 1658.0, 1659.0, 1659.0, 1658.0, 1657.0, 1657.0, 1659.0, 1658.0, 1658.0, 1656.0, 1658.0, 1658.0, 1658.0, 1658.0, 1657.0, 1655.0, 1656.0, 1657.0, 1658.0, 1659.0, 1659.0, 1661.0, 1660.0, 1659.0, 1659.0, 1658.0, 1658.0, 1657.0, 1660.0, 1659.0, 1659.0, 1660.0, 1659.0, 1659.0, 1660.0, 1657.0, 1654.0, 1654.0, 1657.0, 1657.0, 1659.0, 1658.0, 1656.0, 1656.0, 1657.0, 1657.0, 1657.0, 1656.0, 1659.0, 1659.0, 1659.0, 1661.0, 1658.0, 1657.0, 1657.0, 1660.0, 1660.0, 1661.0, 1661.0, 1660.0, 1661.0, 1661.0, 1659.0, 1660.0, 1659.0, 1660.0, 1661.0, 1661.0, 1663.0, 1664.0, 1661.0, 1659.0, 1659.0, 1661.0, 1660.0, 1661.0, 1657.0, 1657.0, 1658.0, 1658.0, 1660.0, 1661.0, 1661.0, 1661.0, 1661.0, 1661.0, 1659.0, 1660.0, 1660.0, 1661.0, 1664.0, 1665.0, 1663.0, 1662.0, 1662.0, 1661.0, 1661.0, 1662.0, 1662.0, 1664.0, 1664.0]
    },
    "slices": {}
  }
}