{
  "AcquisitionMatrixPE": 64,
  "AcquisitionNumber": 1,
  "AcquisitionTime": "09:12:46.017500",
  "BandwidthPerPixelPhaseEncode": 33.967,
  "BaseResolution": 64,
  "CoilCombinationMethod": "Sum of Squares",
  "CoilString": "C:HEA;HEP",
  "ConversionSoftware": "dcm2niix",
  "ConversionSoftwareVersion": "v1.0.20220720",
  "DerivedVendorReportedEchoSpacing": 0.000460005,
  "DeviceSerialNumber": "35193",
  "DwellTime": 3.1e-06,
  "EchoTime": 0.03,
  "EffectiveEchoSpacing": 0.000460005,
  "FlipAngle": 90,
  "HeudiconvVersion": "1.1.6",
  "ImageOrientationPatientDICOM": [1, 0, 0, 0, 1, 0],
  "ImageOrientationText": "Tra",
  "ImageType": [
    "ORIGINAL",
    "PRIMARY",
    "M",
    "ND",
    "MOSAIC"
],
  "ImagingFrequency": 123.254,
  "InPlanePhaseEncodingDirectionDICOM": "COL",
  "InstitutionAddress": "Xinjiekouwai Street No 19,Beijing,Haidian District,CN,100875",
  "InstitutionName": "BNU MRI Center",
  "InstitutionalDepartmentName": "Department",
  "MRAcquisitionType": "2D",
  "MagneticFieldStrength": 3,
  "Manufacturer": "Siemens",
  "ManufacturersModelName": "TrioTim",
  "MatrixCoilMode": "SENSE",
  "Modality": "MR",
  "NonlinearGradientCorrection": false,
  "PartialFourier": 1,
  "PatientPosition": "HFS",
  "PercentPhaseFOV": 100,
  "PercentSampling": 100,
  "PhaseEncodingDirection": "j-",
  "PhaseEncodingSteps": 64,
  "PhaseResolution": 1,
  "PixelBandwidth": 2520,
  "ProcedureStepDescription": "BNU_cst_2015^Guo.TaoMei",
  "ProtocolName": "ge_func_3x3x4_164",
  "PulseSequenceDetails": "%SiemensSeq%\\ep2d_bold",
  "ReceiveCoilName": "HeadMatrix",
  "ReconMatrixPE": 64,
  "RepetitionTime": 2,
  "SAR": 0.132175,
  "ScanOptions": "FS",
  "ScanningSequence": "EP",
  "SequenceName": "*epfid2d1_64",
  "SequenceVariant": "SK",
  "SeriesDescription": "ge_func_3x3x4_164",
  "SeriesNumber": 4,
  "ShimSetting": [-4482, -19338, -9881, 871, -138, -297, -249, 116],
  "SliceThickness": 4,
  "SliceTiming": [0, 1.035, 0.0625, 1.095, 0.1225, 1.1575, 0.1825, 1.2175, 0.245, 1.2775, 0.305, 1.34, 0.365, 1.4, 0.4275, 1.46, 0.4875, 1.5225, 0.5475, 1.5825, 0.61, 1.6425, 0.67, 1.705, 0.73, 1.765, 0.7925, 1.825, 0.8525, 1.8875, 0.9125, 1.9475, 0.975],
  "SoftwareVersions": "syngo MR B17",
  "SpacingBetweenSlices": 4.6,
  "StationName": "MRC35193",
  "TaskName": "LanguageControl",
  "TotalReadoutTime": 0.0289803,
  "TxRefAmp": 350.591,
  "dcmmeta_affine": [
    [-3.125, 0.0, 0.0, 107.42168426513672],
    [0.0, 3.125, 0.0, -84.73042297363281],
    [0.0, 0.0, 4.599999904632568, -67.5277099609375],
    [0.0, 0.0, 0.0, 1.0]
],
  "dcmmeta_reorient_transform": [
    [0.0, -1.0, 0.0, 63.0],
    [1.0, 0.0, 0.0, 0.0],
    [0.0, 0.0, 1.0, 0.0],
    [0.0, 0.0, 0.0, 1.0]
],
  "dcmmeta_shape": [64, 64, 33, 164],
  "dcmmeta_slice_dim": 2,
  "dcmmeta_version": 0.6,
  "global": {
    "const": {
      "AcquisitionMatrix": [64, 0, 0, 64],
      "AngioFlag": "N",
      "BitsAllocated": 16,
      "BitsStored": 12,
      "Columns": 384,
      "EchoNumbers": 1,
      "EchoTime": 30.0,
      "EchoTrainLength": 1,
      "FlipAngle": 90.0,
      "HighBit": 11,
      "ImageOrientationPatient": [1.0, 0.0, 0.0, 0.0, 1.0, 0.0],
      "ImagePositionPatient": [-607.42168664932, -612.14457798004, -67.527709960938],
      "ImageType": [
        "ORIGINAL",
        "PRIMARY",
        "M",
        "ND",
        "MOSAIC"
],
      "ImagedNucleus": "1H",
      "ImagingFrequency": 123.253621,
      "InPlanePhaseEncodingDirection": "COL",
      "MRAcquisitionType": "2D",
      "MagneticFieldStrength": 3.0,
      "Manufacturer": "SIEMENS",
      "ManufacturerModelName": "TrioTim",
      "Modality": "MR",
      "NumberOfAverages": 1.0,
      "NumberOfPhaseEncodingSteps": 64,
      "PercentPhaseFieldOfView": 100.0,
      "PercentSampling": 100.0,
      "PerformedProcedureStepStartTime": "084910.281000",
      "PhotometricInterpretation": "MONOCHROME2",
      "PixelBandwidth": 2520.0,
      "PixelRepresentation": 0,
      "PixelSpacing": [3.125, 3.125],
      "ProtocolName": "ge_func_3x3x4_164",
      "RepetitionTime": 2000.0,
      "Rows": 384,
      "SAR": 0.132174693406,
      "SamplesPerPixel": 1,
      "ScanOptions": "FS",
      "ScanningSequence": "EP",
      "SequenceName": "*epfid2d1_64",
      "SequenceVariant": "SK",
      "SeriesDescription": "ge_func_3x3x4_164",
      "SeriesNumber": 4,
      "SeriesTime": "091342.437000",
      "SliceLocation": -67.527709960938,
      "SliceThickness": 4.0,
      "SmallestImagePixelValue": 0,
      "SoftwareVersions": "syngo MR B17",
      "SpacingBetweenSlices": 4.5999999046326,
      "SpecificCharacterSet": "ISO_IR 100",
      "StudyID": "1",
      "StudyTime": "084910.234000",
      "TransmitCoilName": "Body",
      "VariableFlipAngleFlag": "N",
      "WindowCenterWidthExplanation": "Algo1",
      "dBdt": 0.0},
    "slices": {}
  },
  "time": {
    "samples": {
      "AcquisitionNumber": [1, 2, 3, 4, 5, 6, 7, 8, 9, 10, 11, 12, 13, 14, 15, 16, 17, 18, 19, 20, 21, 22, 23, 24, 25, 26, 27, 28, 29, 30, 31, 32, 33, 34, 35, 36, 37, 38, 39, 40, 41, 42, 43, 44, 45, 46, 47, 48, 49, 50, 51, 52, 53, 54, 55, 56, 57, 58, 59, 60, 61, 62, 63, 64, 65, 66, 67, 68, 69, 70, 71, 72, 73, 74, 75, 76, 77, 78, 79, 80, 81, 82, 83, 84, 85, 86, 87, 88, 89, 90, 91, 92, 93, 94, 95, 96, 97, 98, 99, 100, 101, 102, 103, 104, 105, 106, 107, 108, 109, 110, 111, 112, 113, 114, 115, 116, 117, 118, 119, 120, 121, 122, 123, 124, 125, 126, 127, 128, 129, 130, 131, 132, 133, 134, 135, 136, 137, 138, 139, 140, 141, 142, 143, 144, 145, 146, 147, 148, 149, 150, 151, 152, 153, 154, 155, 156, 157, 158, 159, 160, 161, 162, 163, 164],
      "AcquisitionTime": ["091246.017500", "091248.027500", "091250.035000", "091252.042500", "091254.050000", "091256.057500", "091258.067500", "091300.075000", "091302.082500", "091304.090000", "091306.097500", "091308.107500", "091310.115000", "091312.122500", "091314.130000", "091316.140000", "091318.147500", "091320.155000", "091322.162500", "091324.170000", "091326.180000", "091328.187500", "091330.195000", "091332.202500", "091334.210000", "091336.220000", "091338.227500", "091340.235000", "091342.242500", "091344.252500", "091346.260000", "091348.267500", "091350.275000", "091352.282500", "091354.292500", "091356.300000", "091358.307500", "091400.315000", "091402.322500", "091404.332500", "091406.340000", "091408.347500", "091410.355000", "091412.362500", "091414.372500", "091416.380000", "091418.387500", "091420.395000", "091422.405000", "091424.412500", "091426.420000", "091428.427500", "091430.435000", "091432.445000", "091434.452500", "091436.460000", "091438.467500", "091440.475000", "091442.485000", "091444.492500", "091446.500000", "091448.507500", "091450.517500", "091452.525000", "091454.532500", "091456.540000", "091458.547500", "091500.557500", "091502.565000", "091504.572500", "091506.580000", "091508.587500", "091510.597500", "091512.605000", "091514.612500", "091516.620000", "091518.630000", "091520.637500", "091522.645000", "091524.652500", "091526.660000", "091528.670000", "091530.677500", "091532.685000", "091534.692500", "091536.700000", "091538.710000", "091540.717500", "091542.725000", "091544.732500", "091546.740000", "091548.750000", "091550.757500", "091552.765000", "091554.772500", "091556.782500", "091558.790000", "091600.797500", "091602.805000", "091604.812500", "091606.822500", "091608.830000", "091610.837500", "091612.845000", "091614.852500", "091616.862500", "091618.870000", "091620.877500", "091622.885000", "091624.895000", "091626.902500", "091628.910000", "091630.917500", "091632.925000", "091634.935000", "091636.942500", "091638.950000", "091640.957500", "091642.965000", "091644.975000", "091646.982500", "091648.990000", "091650.997500", "091653.007500", "091655.015000", "091657.022500", "091659.030000", "091701.037500", "091703.047500", "091705.055000", "091707.062500", "091709.070000", "091711.077500", "091713.087500", "091715.095000", "091717.102500", "091719.110000", "091721.117500", "091723.127500", "091725.135000", "091727.142500", "091729.150000", "091731.160000", "091733.167500", "091735.175000", "091737.182500", "091739.190000", "091741.200000", "091743.207500", "091745.215000", "091747.222500", "091749.230000", "091751.240000", "091753.247500", "091755.255000", "091757.262500", "091759.272500", "091801.280000", "091803.287500", "091805.295000", "091807.302500", "091809.312500", "091811.320000", "091813.327500"],
      "ContentTime": ["091342.437000", "091342.437000", "091342.437000", "091342.453000", "091342.453000", "091342.453000", "091342.453000", "091342.453000", "091342.453000", "091342.453000", "091342.453000", "091342.468000", "091342.468000", "091342.468000", "091342.468000", "091342.468000", "091342.484000", "091342.484000", "091342.484000", "091342.500000", "091342.500000", "091342.500000", "091342.500000", "091342.500000", "091342.500000", "091342.500000", "091342.500000", "091422.437000", "091422.437000", "091422.453000", "091422.453000", "091422.453000", "091422.453000", "091422.453000", "091422.453000", "091422.453000", "091422.468000", "091422.468000", "091422.468000", "091422.468000", "091422.468000", "091422.468000", "091422.468000", "091422.468000", "091422.484000", "091422.484000", "091422.484000", "091502.437000", "091502.437000", "091502.437000", "091502.437000", "091502.437000", "091502.437000", "091502.437000", "091502.453000", "091502.453000", "091502.453000", "091502.453000", "091502.468000", "091502.468000", "091502.468000", "091502.468000", "091502.468000", "091502.468000", "091502.468000", "091502.468000", "091502.484000", "091542.437000", "091542.437000", "091542.437000", "091542.437000", "091542.437000", "091542.437000", "091542.453000", "091542.453000", "091542.468000", "091542.468000", "091542.468000", "091542.468000", "091542.468000", "091542.468000", "091542.468000", "091542.468000", "091542.484000", "091542.484000", "091542.484000", "091542.484000", "091622.437000", "091622.437000", "091622.437000", "091622.437000", "091622.437000", "091622.437000", "091622.453000", "091622.453000", "091622.453000", "091622.453000", "091622.468000", "091622.468000", "091622.468000", "091622.468000", "091622.468000", "091622.468000", "091622.468000", "091622.468000", "091622.484000", "091622.484000", "091702.437000", "091702.437000", "091702.437000", "091702.437000", "091702.437000", "091702.437000", "091702.437000", "091702.453000", "091702.453000", "091702.453000", "091702.453000", "091702.453000", "091702.453000", "091702.453000", "091702.453000", "091702.468000", "091702.468000", "091702.468000", "091702.468000", "091702.468000", "091742.437000", "091742.437000", "091742.437000", "091742.437000", "091742.437000", "091742.437000", "091742.437000", "091742.453000", "091742.453000", "091742.453000", "091742.453000", "091742.453000", "091742.453000", "091742.453000", "091742.453000", "091742.468000", "091742.468000", "091742.468000", "091742.468000", "091742.468000", "091815.125000", "091815.125000", "091815.125000", "091815.140000", "091815.140000", "091815.140000", "091815.156000", "091815.156000", "091815.156000", "091815.156000", "091815.171000", "091815.171000", "091815.171000", "091815.171000", "091815.171000", "091815.171000", "091815.187000"],
      "InstanceCreationTime": ["091342.437000", "091342.437000", "091342.437000", "091342.453000", "091342.453000", "091342.453000", "091342.453000", "091342.453000", "091342.453000", "091342.453000", "091342.453000", "091342.468000", "091342.468000", "091342.468000", "091342.468000", "091342.468000", "091342.484000", "091342.484000", "091342.484000", "091342.500000", "091342.500000", "091342.500000", "091342.500000", "091342.500000", "091342.500000", "091342.500000", "091342.500000", "091422.437000", "091422.437000", "091422.453000", "091422.453000", "091422.453000", "091422.453000", "091422.453000", "091422.453000", "091422.453000", "091422.468000", "091422.468000", "091422.468000", "091422.468000", "091422.468000", "091422.468000", "091422.468000", "091422.468000", "091422.484000", "091422.484000", "091422.484000", "091502.437000", "091502.437000", "091502.437000", "091502.437000", "091502.437000", "091502.437000", "091502.437000", "091502.453000", "091502.453000", "091502.453000", "091502.453000", "091502.468000", "091502.468000", "091502.468000", "091502.468000", "091502.468000", "091502.468000", "091502.468000", "091502.468000", "091502.484000", "091542.437000", "091542.437000", "091542.437000", "091542.437000", "091542.437000", "091542.437000", "091542.453000", "091542.453000", "091542.468000", "091542.468000", "091542.468000", "091542.468000", "091542.468000", "091542.468000", "091542.468000", "091542.468000", "091542.484000", "091542.484000", "091542.484000", "091542.484000", "091622.437000", "091622.437000", "091622.437000", "091622.437000", "091622.437000", "091622.437000", "091622.453000", "091622.453000", "091622.453000", "091622.453000", "091622.468000", "091622.468000", "091622.468000", "091622.468000", "091622.468000", "091622.468000", "091622.468000", "091622.468000", "091622.484000", "091622.484000", "091702.437000", "091702.437000", "091702.437000", "091702.437000", "091702.437000", "091702.437000", "091702.437000", "091702.453000", "091702.453000", "091702.453000", "091702.453000", "091702.453000", "091702.453000", "091702.453000", "091702.453000", "091702.468000", "091702.468000", "091702.468000", "091702.468000", "091702.468000", "091742.437000", "091742.437000", "091742.437000", "091742.437000", "091742.437000", "091742.437000", "091742.437000", "091742.453000", "091742.453000", "091742.453000", "091742.453000", "091742.453000", "091742.453000", "091742.453000", "091742.453000", "091742.468000", "091742.468000", "091742.468000", "091742.468000", "091742.468000", "091815.125000", "091815.125000", "091815.125000", "091815.140000", "091815.140000", "091815.140000", "091815.156000", "091815.156000", "091815.156000", "091815.156000", "091815.171000", "091815.171000", "091815.171000", "091815.171000", "091815.171000", "091815.171000", "091815.187000"],
      "InstanceNumber": [1, 2, 3, 4, 5, 6, 7, 8, 9, 10, 11, 12, 13, 14, 15, 16, 17, 18, 19, 20, 21, 22, 23, 24, 25, 26, 27, 28, 29, 30, 31, 32, 33, 34, 35, 36, 37, 38, 39, 40, 41, 42, 43, 44, 45, 46, 47, 48, 49, 50, 51, 52, 53, 54, 55, 56, 57, 58, 59, 60, 61, 62, 63, 64, 65, 66, 67, 68, 69, 70, 71, 72, 73, 74, 75, 76, 77, 78, 79, 80, 81, 82, 83, 84, 85, 86, 87, 88, 89, 90, 91, 92, 93, 94, 95, 96, 97, 98, 99, 100, 101, 102, 103, 104, 105, 106, 107, 108, 109, 110, 111, 112, 113, 114, 115, 116, 117, 118, 119, 120, 121, 122, 123, 124, 125, 126, 127, 128, 129, 130, 131, 132, 133, 134, 135, 136, 137, 138, 139, 140, 141, 142, 143, 144, 145, 146, 147, 148, 149, 150, 151, 152, 153, 154, 155, 156, 157, 158, 159, 160, 161, 162, 163, 164],
      "LargestImagePixelValue": [2074, 2020, 1985, 1979, 1977, 1984, 1980, 1991, 1967, 1964, 1973, 2036, 1979, 1974, 1966, 1973, 1988, 1975, 1982, 1985, 1994, 1989, 1990, 1969, 1987, 1977, 1974, 1990, 1999, 1982, 1973, 1998, 1965, 1978, 1995, 1980, 1970, 2003, 1954, 1978, 1980, 1972, 1979, 1977, 1969, 1962, 1975, 1973, 1970, 1964, 1970, 1970, 1977, 1984, 1974, 1989, 1959, 1968, 1964, 1959, 1933, 1966, 1970, 1958, 1951, 1950, 1947, 1960, 1957, 1964, 1948, 1943, 1946, 1937, 1932, 1945, 1942, 1930, 1938, 1949, 1947, 1945, 1949, 1952, 1943, 1959, 1952, 1937, 1953, 1932, 1935, 1930, 1947, 1937, 1954, 1941, 1933, 1939, 1936, 1919, 1940, 1924, 1992, 1946, 1946, 1958, 1933, 1955, 1934, 1949, 1931, 1948, 1949, 1921, 1923, 1930, 1934, 1916, 1915, 1927, 1920, 1919, 1956, 1917, 1934, 1901, 1906, 1901, 1970, 1894, 1896, 1911, 1891, 1899, 1894, 1917, 1897, 1896, 1877, 1903, 1892, 1876, 1898, 1906, 1884, 1876, 1899, 1904, 1889, 1893, 1892, 1873, 1882, 1900, 1878, 1885, 1906, 1986, 1870, 1902, 1875, 1903, 1875, 1897],
      "WindowCenter": [764.0, 763.0, 762.0, 762.0, 761.0, 761.0, 760.0, 760.0, 760.0, 759.0, 759.0, 759.0, 759.0, 759.0, 758.0, 758.0, 759.0, 759.0, 758.0, 758.0, 758.0, 758.0, 759.0, 759.0, 759.0, 759.0, 760.0, 760.0, 759.0, 760.0, 760.0, 760.0, 760.0, 759.0, 759.0, 759.0, 759.0, 760.0, 760.0, 759.0, 760.0, 760.0, 760.0, 761.0, 760.0, 760.0, 760.0, 760.0, 760.0, 760.0, 760.0, 760.0, 760.0, 760.0, 761.0, 761.0, 760.0, 761.0, 760.0, 760.0, 760.0, 759.0, 759.0, 760.0, 760.0, 760.0, 759.0, 759.0, 759.0, 759.0, 759.0, 760.0, 760.0, 759.0, 759.0, 760.0, 760.0, 760.0, 759.0, 760.0, 760.0, 761.0, 761.0, 761.0, 760.0, 760.0, 760.0, 759.0, 759.0, 759.0, 759.0, 759.0, 759.0, 760.0, 760.0, 760.0, 761.0, 761.0, 761.0, 761.0, 762.0, 761.0, 762.0, 761.0, 762.0, 762.0, 762.0, 761.0, 761.0, 761.0, 760.0, 760.0, 760.0, 759.0, 760.0, 760.0, 760.0, 761.0, 761.0, 761.0, 761.0, 760.0, 761.0, 761.0, 761.0, 761.0, 761.0, 761.0, 761.0, 760.0, 760.0, 760.0, 760.0, 760.0, 761.0, 761.0, 761.0, 761.0, 761.0, 761.0, 761.0, 760.0, 760.0, 761.0, 760.0, 760.0, 760.0, 761.0, 761.0, 760.0, 760.0, 761.0, 761.0, 761.0, 761.0, 761.0, 762.0, 762.0, 762.0, 762.0, 761.0, 762.0, 761.0, 760.0],
      "WindowWidth": [1672.0, 1666.0, 1663.0, 1664.0, 1661.0, 1660.0, 1659.0, 1660.0, 1658.0, 1656.0, 1655.0, 1656.0, 1656.0, 1654.0, 1654.0, 1654.0, 1655.0, 1654.0, 1654.0, 1652.0, 1654.0, 1654.0, 1656.0, 1657.0, 1657.0, 1657.0, 1657.0, 1659.0, 1656.0, 1657.0, 1658.0, 1658.0, 1657.0, 1657.0, 1655.0, 1655.0, 1654.0, 1659.0, 1658.0, 1657.0, 1657.0, 1659.0, 1659.0, 1661.0, 1659.0, 1658.0, 1659.0, 1660.0, 1660.0, 1658.0, 1657.0, 1658.0, 1659.0, 1660.0, 1661.0, 1660.0, 1658.0, 1660.0, 1657.0, 1658.0, 1657.0, 1656.0, 1657.0, 1658.0, 1658.0, 1657.0, 1656.0, 1655.0, 1655.0, 1655.0, 1657.0, 1657.0, 1656.0, 1656.0, 1654.0, 1657.0, 1657.0, 1656.0, 1654.0, 1658.0, 1658.0, 1659.0, 1661.0, 1659.0, 1659.0, 1658.0, 1658.0, 1656.0, 1656.0, 1656.0, 1655.0, 1656.0, 1656.0, 1657.0, 1656.0, 1658.0, 1659.0, 1660.0, 1660.0, 1662.0, 1663.0, 1662.0, 1663.0, 1662.0, 1663.0, 1663.0, 1662.0, 1661.0, 1660.0, 1661.0, 1659.0, 1658.0, 1657.0, 1655.0, 1656.0, 1657.0, 1657.0, 1659.0, 1660.0, 1660.0, 1659.0, 1659.0, 1660.0, 1659.0, 1660.0, 1659.0, 1660.0, 1661.0, 1662.0, 1658.0, 1657.0, 1657.0, 1658.0, 1659.0, 1661.0, 1662.0, 1660.0, 1659.0, 1659.0, 1660.0, 1660.0, 1658.0, 1658.0, 1659.0, 1657.0, 1657.0, 1658.0, 1661.0, 1659.0, 1659.0, 1658.0, 1659.0, 1659.0, 1660.0, 1661.0, 1662.0, 1662.0, 1665.0, 1662.0, 1663.0, 1662.0, 1663.0, 1660.0, 1658.0]
    },
    "slices": {}
  }
}