{
  "AcquisitionMatrixPE": 64,
  "AcquisitionNumber": 1,
  "AcquisitionTime": "14:35:30.780000",
  "BandwidthPerPixelPhaseEncode": 33.967,
  "BaseResolution": 64,
  "CoilCombinationMethod": "Sum of Squares",
  "CoilString": "C:HEA;HEP",
  "ConversionSoftware": "dcm2niix",
  "ConversionSoftwareVersion": "v1.0.20220720",
  "DerivedVendorReportedEchoSpacing": 0.000460005,
  "DeviceSerialNumber": "35193",
  "DwellTime": 3.1e-06,
  "EchoTime": 0.03,
  "EffectiveEchoSpacing": 0.000460005,
  "FlipAngle": 90,
  "HeudiconvVersion": "1.1.6",
  "ImageOrientationPatientDICOM": [0.999193, 0.0226874, -0.0331466, -0.0226749, 0.999743, 0.000752202],
  "ImageOrientationText": "Tra>Sag(-1.9)",
  "ImageType": [
    "ORIGINAL",
    "PRIMARY",
    "M",
    "ND",
    "MOSAIC"
],
  "ImagingFrequency": 123.254,
  "InPlanePhaseEncodingDirectionDICOM": "COL",
  "InstitutionAddress": "Xinjiekouwai Street No 19,Beijing,Haidian District,CN,100875",
  "InstitutionName": "BNU MRI Center",
  "InstitutionalDepartmentName": "Department",
  "MRAcquisitionType": "2D",
  "MagneticFieldStrength": 3,
  "Manufacturer": "Siemens",
  "ManufacturersModelName": "TrioTim",
  "MatrixCoilMode": "SENSE",
  "Modality": "MR",
  "NonlinearGradientCorrection": false,
  "PartialFourier": 1,
  "PatientPosition": "HFS",
  "PercentPhaseFOV": 100,
  "PercentSampling": 100,
  "PhaseEncodingDirection": "j-",
  "PhaseEncodingSteps": 64,
  "PhaseResolution": 1,
  "PixelBandwidth": 2520,
  "ProcedureStepDescription": "BNU_cst_2015^Guo.TaoMei",
  "ProtocolName": "ge_func_3x3x4_164",
  "PulseSequenceDetails": "%SiemensSeq%\\ep2d_bold",
  "ReceiveCoilName": "HeadMatrix",
  "ReconMatrixPE": 64,
  "RepetitionTime": 2,
  "SAR": 0.167184,
  "ScanOptions": "FS",
  "ScanningSequence": "EP",
  "SequenceName": "*epfid2d1_64",
  "SequenceVariant": "SK",
  "SeriesDescription": "ge_func_3x3x4_164",
  "SeriesNumber": 5,
  "ShimSetting": [-4494, -19502, -9825, 942, -58, -893, -117, -56],
  "SliceThickness": 4,
  "SliceTiming": [0, 1.0325, 0.06, 1.095, 0.12, 1.155, 0.1825, 1.215, 0.2425, 1.2775, 0.3025, 1.3375, 0.365, 1.3975, 0.425, 1.46, 0.485, 1.52, 0.5475, 1.58, 0.6075, 1.6425, 0.6675, 1.7025, 0.73, 1.7625, 0.79, 1.825, 0.85, 1.885, 0.9125, 1.945, 0.9725],
  "SoftwareVersions": "syngo MR B17",
  "SpacingBetweenSlices": 4.6,
  "StationName": "MRC35193",
  "TaskName": "CognitiveControl",
  "TotalReadoutTime": 0.0289803,
  "TxRefAmp": 327.202,
  "dcmmeta_affine": [
    [-3.1224780082702637, -0.07085904479026794, -0.15251381695270538, 107.25494384765625],
    [-0.07089802622795105, 3.1241955757141113, -6.214317949115866e-09, -84.46084594726562],
    [-0.10358326137065887, -0.002350632334128022, 4.597470760345459, -59.3768196105957],
    [0.0, 0.0, 0.0, 1.0]
],
  "dcmmeta_reorient_transform": [
    [0.0, -1.0, 0.0, 63.0],
    [1.0, 0.0, 0.0, 0.0],
    [0.0, 0.0, 1.0, 0.0],
    [0.0, 0.0, 0.0, 1.0]
],
  "dcmmeta_shape": [64, 64, 33, 164],
  "dcmmeta_slice_dim": 2,
  "dcmmeta_version": 0.6,
  "global": {
    "const": {
      "AcquisitionMatrix": [64, 0, 0, 64],
      "AngioFlag": "N",
      "BitsAllocated": 16,
      "BitsStored": 12,
      "Columns": 384,
      "EchoNumbers": 1,
      "EchoTime": 30.0,
      "EchoTrainLength": 1,
      "FlipAngle": 90.0,
      "HighBit": 11,
      "ImageOrientationPatient": [0.9991929660131, 0.02268736794479, -0.0331466439581, -0.0226748948368, 0.99974260854269, 0.00075220236788],
      "ImagePositionPatient": [-591.04985885721, -623.57846738357, -43.327689751662],
      "ImageType": [
        "ORIGINAL",
        "PRIMARY",
        "M",
        "ND",
        "MOSAIC"
],
      "ImagedNucleus": "1H",
      "ImagingFrequency": 123.253717,
      "InPlanePhaseEncodingDirection": "COL",
      "MRAcquisitionType": "2D",
      "MagneticFieldStrength": 3.0,
      "Manufacturer": "SIEMENS",
      "ManufacturerModelName": "TrioTim",
      "Modality": "MR",
      "NumberOfAverages": 1.0,
      "NumberOfPhaseEncodingSteps": 64,
      "PercentPhaseFieldOfView": 100.0,
      "PercentSampling": 100.0,
      "PerformedProcedureStepStartTime": "141341.812000",
      "PhotometricInterpretation": "MONOCHROME2",
      "PixelBandwidth": 2520.0,
      "PixelRepresentation": 0,
      "PixelSpacing": [3.125, 3.125],
      "ProtocolName": "ge_func_3x3x4_164",
      "RepetitionTime": 2000.0,
      "Rows": 384,
      "SAR": 0.16718363754245,
      "SamplesPerPixel": 1,
      "ScanOptions": "FS",
      "ScanningSequence": "EP",
      "SequenceName": "*epfid2d1_64",
      "SequenceVariant": "SK",
      "SeriesDescription": "ge_func_3x3x4_164",
      "SeriesNumber": 5,
      "SeriesTime": "143627.890000",
      "SliceLocation": -62.900232873243,
      "SliceThickness": 4.0,
      "SmallestImagePixelValue": 0,
      "SoftwareVersions": "syngo MR B17",
      "SpacingBetweenSlices": 4.5999998861338,
      "SpecificCharacterSet": "ISO_IR 100",
      "StudyID": "1",
      "StudyTime": "141341.734000",
      "TransmitCoilName": "Body",
      "VariableFlipAngleFlag": "N",
      "WindowCenterWidthExplanation": "Algo1",
      "dBdt": 0.0},
    "slices": {}
  },
  "time": {
    "samples": {
      "AcquisitionNumber": [1, 2, 3, 4, 5, 6, 7, 8, 9, 10, 11, 12, 13, 14, 15, 16, 17, 18, 19, 20, 21, 22, 23, 24, 25, 26, 27, 28, 29, 30, 31, 32, 33, 34, 35, 36, 37, 38, 39, 40, 41, 42, 43, 44, 45, 46, 47, 48, 49, 50, 51, 52, 53, 54, 55, 56, 57, 58, 59, 60, 61, 62, 63, 64, 65, 66, 67, 68, 69, 70, 71, 72, 73, 74, 75, 76, 77, 78, 79, 80, 81, 82, 83, 84, 85, 86, 87, 88, 89, 90, 91, 92, 93, 94, 95, 96, 97, 98, 99, 100, 101, 102, 103, 104, 105, 106, 107, 108, 109, 110, 111, 112, 113, 114, 115, 116, 117, 118, 119, 120, 121, 122, 123, 124, 125, 126, 127, 128, 129, 130, 131, 132, 133, 134, 135, 136, 137, 138, 139, 140, 141, 142, 143, 144, 145, 146, 147, 148, 149, 150, 151, 152, 153, 154, 155, 156, 157, 158, 159, 160, 161, 162, 163, 164],
      "AcquisitionTime": ["143530.780000", "143532.787500", "143534.795000", "143536.802500", "143538.812500", "143540.820000", "143542.827500", "143544.835000", "143546.842500", "143548.852500", "143550.860000", "143552.867500", "143554.875000", "143556.882500", "143558.892500", "143600.900000", "143602.907500", "143604.915000", "143606.925000", "143608.932500", "143610.940000", "143612.947500", "143614.955000", "143616.965000", "143618.972500", "143620.980000", "143622.987500", "143624.995000", "143627.005000", "143629.012500", "143631.020000", "143633.027500", "143635.035000", "143637.045000", "143639.052500", "143641.060000", "143643.067500", "143645.077500", "143647.085000", "143649.092500", "143651.100000", "143653.107500", "143655.117500", "143657.125000", "143659.132500", "143701.140000", "143703.147500", "143705.157500", "143707.165000", "143709.172500", "143711.180000", "143713.190000", "143715.197500", "143717.205000", "143719.212500", "143721.220000", "143723.230000", "143725.237500", "143727.245000", "143729.252500", "143731.260000", "143733.270000", "143735.277500", "143737.285000", "143739.292500", "143741.302500", "143743.310000", "143745.317500", "143747.325000", "143749.332500", "143751.342500", "143753.350000", "143755.357500", "143757.365000", "143759.372500", "143801.382500", "143803.390000", "143805.397500", "143807.405000", "143809.412500", "143811.422500", "143813.430000", "143815.437500", "143817.445000", "143819.455000", "143821.462500", "143823.470000", "143825.477500", "143827.485000", "143829.495000", "143831.502500", "143833.510000", "143835.517500", "143837.525000", "143839.535000", "143841.542500", "143843.550000", "143845.557500", "143847.567500", "143849.575000", "143851.582500", "143853.590000", "143855.597500", "143857.607500", "143859.615000", "143901.622500", "143903.630000", "143905.637500", "143907.647500", "143909.655000", "143911.662500", "143913.670000", "143915.680000", "143917.687500", "143919.695000", "143921.702500", "143923.710000", "143925.720000", "143927.727500", "143929.735000", "143931.742500", "143933.750000", "143935.760000", "143937.767500", "143939.775000", "143941.782500", "143943.792500", "143945.800000", "143947.807500", "143949.815000", "143951.822500", "143953.832500", "143955.840000", "143957.847500", "143959.855000", "144001.862500", "144003.872500", "144005.880000", "144007.887500", "144009.895000", "144011.902500", "144013.912500", "144015.920000", "144017.927500", "144019.935000", "144021.945000", "144023.952500", "144025.960000", "144027.967500", "144029.975000", "144031.985000", "144033.992500", "144036.000000", "144038.007500", "144040.015000", "144042.025000", "144044.032500", "144046.040000", "144048.047500", "144050.057500", "144052.065000", "144054.072500", "144056.080000", "144058.087500"],
      "ContentTime": ["143627.906000", "143627.906000", "143627.906000", "143627.906000", "143627.906000", "143627.906000", "143627.906000", "143627.921000", "143627.921000", "143627.921000", "143627.921000", "143627.921000", "143627.921000", "143627.921000", "143627.921000", "143627.937000", "143627.937000", "143627.937000", "143627.937000", "143627.953000", "143627.953000", "143627.953000", "143627.953000", "143627.953000", "143627.968000", "143627.968000", "143627.968000", "143627.968000", "143707.890000", "143707.890000", "143707.890000", "143707.890000", "143707.906000", "143707.906000", "143707.906000", "143707.906000", "143707.906000", "143707.906000", "143707.906000", "143707.921000", "143707.921000", "143707.921000", "143707.921000", "143707.921000", "143707.921000", "143707.937000", "143707.937000", "143707.937000", "143747.890000", "143747.890000", "143747.890000", "143747.906000", "143747.906000", "143747.921000", "143747.921000", "143747.921000", "143747.921000", "143747.921000", "143747.937000", "143747.937000", "143747.937000", "143747.937000", "143747.937000", "143747.953000", "143747.953000", "143747.953000", "143747.953000", "143747.953000", "143827.890000", "143827.890000", "143827.890000", "143827.890000", "143827.906000", "143827.906000", "143827.906000", "143827.906000", "143827.906000", "143827.906000", "143827.906000", "143827.906000", "143827.921000", "143827.921000", "143827.921000", "143827.921000", "143827.921000", "143827.921000", "143827.921000", "143827.921000", "143907.890000", "143907.906000", "143907.906000", "143907.906000", "143907.906000", "143907.906000", "143907.906000", "143907.906000", "143907.906000", "143907.921000", "143907.921000", "143907.921000", "143907.921000", "143907.921000", "143907.921000", "143907.921000", "143907.937000", "143907.937000", "143907.937000", "143907.937000", "143947.890000", "143947.890000", "143947.890000", "143947.890000", "143947.906000", "143947.906000", "143947.906000", "143947.906000", "143947.906000", "143947.906000", "143947.906000", "143947.906000", "143947.921000", "143947.921000", "143947.921000", "143947.921000", "143947.921000", "143947.921000", "143947.921000", "143947.921000", "144027.890000", "144027.890000", "144027.890000", "144027.890000", "144027.906000", "144027.906000", "144027.906000", "144027.906000", "144027.906000", "144027.906000", "144027.906000", "144027.906000", "144027.921000", "144027.921000", "144027.921000", "144027.921000", "144027.921000", "144027.921000", "144027.921000", "144027.921000", "144059.734000", "144059.734000", "144059.734000", "144059.734000", "144059.734000", "144059.750000", "144059.750000", "144059.750000", "144059.750000", "144059.750000", "144059.750000", "144059.750000", "144059.750000", "144059.765000", "144059.765000", "144059.765000"],
      "InstanceCreationTime": ["143627.906000", "143627.906000", "143627.906000", "143627.906000", "143627.906000", "143627.906000", "143627.906000", "143627.921000", "143627.921000", "143627.921000", "143627.921000", "143627.921000", "143627.921000", "143627.921000", "143627.921000", "143627.937000", "143627.937000", "143627.937000", "143627.937000", "143627.953000", "143627.953000", "143627.953000", "143627.953000", "143627.953000", "143627.968000", "143627.968000", "143627.968000", "143627.968000", "143707.890000", "143707.890000", "143707.890000", "143707.890000", "143707.906000", "143707.906000", "143707.906000", "143707.906000", "143707.906000", "143707.906000", "143707.906000", "143707.921000", "143707.921000", "143707.921000", "143707.921000", "143707.921000", "143707.921000", "143707.937000", "143707.937000", "143707.937000", "143747.890000", "143747.890000", "143747.890000", "143747.906000", "143747.906000", "143747.921000", "143747.921000", "143747.921000", "143747.921000", "143747.921000", "143747.937000", "143747.937000", "143747.937000", "143747.937000", "143747.937000", "143747.953000", "143747.953000", "143747.953000", "143747.953000", "143747.953000", "143827.890000", "143827.890000", "143827.890000", "143827.890000", "143827.906000", "143827.906000", "143827.906000", "143827.906000", "143827.906000", "143827.906000", "143827.906000", "143827.906000", "143827.921000", "143827.921000", "143827.921000", "143827.921000", "143827.921000", "143827.921000", "143827.921000", "143827.921000", "143907.890000", "143907.906000", "143907.906000", "143907.906000", "143907.906000", "143907.906000", "143907.906000", "143907.906000", "143907.906000", "143907.921000", "143907.921000", "143907.921000", "143907.921000", "143907.921000", "143907.921000", "143907.921000", "143907.937000", "143907.937000", "143907.937000", "143907.937000", "143947.890000", "143947.890000", "143947.890000", "143947.890000", "143947.906000", "143947.906000", "143947.906000", "143947.906000", "143947.906000", "143947.906000", "143947.906000", "143947.906000", "143947.921000", "143947.921000", "143947.921000", "143947.921000", "143947.921000", "143947.921000", "143947.921000", "143947.921000", "144027.890000", "144027.890000", "144027.890000", "144027.890000", "144027.906000", "144027.906000", "144027.906000", "144027.906000", "144027.906000", "144027.906000", "144027.906000", "144027.906000", "144027.921000", "144027.921000", "144027.921000", "144027.921000", "144027.921000", "144027.921000", "144027.921000", "144027.921000", "144059.734000", "144059.734000", "144059.734000", "144059.734000", "144059.734000", "144059.750000", "144059.750000", "144059.750000", "144059.750000", "144059.750000", "144059.750000", "144059.750000", "144059.750000", "144059.765000", "144059.765000", "144059.765000"],
      "InstanceNumber": [1, 2, 3, 4, 5, 6, 7, 8, 9, 10, 11, 12, 13, 14, 15, 16, 17, 18, 19, 20, 21, 22, 23, 24, 25, 26, 27, 28, 29, 30, 31, 32, 33, 34, 35, 36, 37, 38, 39, 40, 41, 42, 43, 44, 45, 46, 47, 48, 49, 50, 51, 52, 53, 54, 55, 56, 57, 58, 59, 60, 61, 62, 63, 64, 65, 66, 67, 68, 69, 70, 71, 72, 73, 74, 75, 76, 77, 78, 79, 80, 81, 82, 83, 84, 85, 86, 87, 88, 89, 90, 91, 92, 93, 94, 95, 96, 97, 98, 99, 100, 101, 102, 103, 104, 105, 106, 107, 108, 109, 110, 111, 112, 113, 114, 115, 116, 117, 118, 119, 120, 121, 122, 123, 124, 125, 126, 127, 128, 129, 130, 131, 132, 133, 134, 135, 136, 137, 138, 139, 140, 141, 142, 143, 144, 145, 146, 147, 148, 149, 150, 151, 152, 153, 154, 155, 156, 157, 158, 159, 160, 161, 162, 163, 164],
      "LargestImagePixelValue": [1776, 1816, 1660, 1675, 1662, 1852, 1673, 1658, 1668, 1647, 1665, 1687, 1646, 1667, 1731, 1661, 1691, 1665, 1658, 1658, 1669, 1679, 1664, 1673, 1678, 1681, 1693, 1685, 1662, 1667, 1710, 1658, 1676, 1692, 1669, 1679, 1685, 1687, 1673, 1750, 1670, 1660, 1666, 1680, 1677, 1676, 1682, 1692, 1666, 1685, 1798, 1683, 1687, 1704, 1672, 1691, 1670, 1681, 1667, 1680, 1667, 1679, 1837, 1664, 1671, 1672, 1659, 1674, 1668, 1671, 1668, 1681, 1678, 1690, 1733, 1654, 1678, 1696, 1675, 1660, 1677, 1824, 1664, 1675, 1674, 1671, 1660, 1657, 1658, 1674, 1689, 1661, 1674, 1657, 1690, 1682, 1676, 1688, 1670, 1660, 1675, 1787, 1710, 1683, 1673, 1692, 1669, 1683, 1678, 1668, 1656, 1671, 1791, 1654, 1660, 1830, 1666, 1668, 1687, 1661, 1651, 1675, 1673, 1663, 1657, 1870, 1679, 1691, 1671, 1663, 1682, 1692, 1688, 1699, 1675, 1662, 1686, 1669, 1671, 1685, 1652, 1659, 1664, 1645, 1649, 1662, 1679, 1668, 1677, 1684, 1677, 1666, 1707, 1676, 1678, 1681, 1687, 1672, 1651, 1657, 1675, 1695, 1686, 1680],
      "WindowCenter": [710.0, 707.0, 707.0, 708.0, 708.0, 709.0, 708.0, 709.0, 709.0, 709.0, 709.0, 709.0, 709.0, 709.0, 709.0, 709.0, 710.0, 710.0, 710.0, 709.0, 709.0, 710.0, 710.0, 710.0, 710.0, 710.0, 710.0, 710.0, 711.0, 710.0, 710.0, 710.0, 710.0, 709.0, 709.0, 711.0, 711.0, 710.0, 710.0, 710.0, 709.0, 709.0, 709.0, 710.0, 710.0, 710.0, 710.0, 710.0, 710.0, 710.0, 711.0, 710.0, 710.0, 710.0, 710.0, 710.0, 710.0, 710.0, 710.0, 710.0, 711.0, 711.0, 711.0, 710.0, 710.0, 711.0, 711.0, 711.0, 710.0, 711.0, 711.0, 711.0, 711.0, 711.0, 711.0, 711.0, 711.0, 710.0, 710.0, 710.0, 710.0, 711.0, 710.0, 711.0, 710.0, 710.0, 710.0, 710.0, 709.0, 709.0, 710.0, 710.0, 711.0, 710.0, 711.0, 711.0, 711.0, 710.0, 710.0, 711.0, 711.0, 711.0, 711.0, 711.0, 711.0, 710.0, 710.0, 711.0, 712.0, 710.0, 709.0, 709.0, 710.0, 710.0, 709.0, 710.0, 709.0, 709.0, 710.0, 710.0, 710.0, 710.0, 711.0, 710.0, 710.0, 711.0, 710.0, 711.0, 712.0, 711.0, 711.0, 711.0, 711.0, 711.0, 711.0, 711.0, 711.0, 711.0, 711.0, 710.0, 710.0, 710.0, 710.0, 710.0, 710.0, 710.0, 710.0, 710.0, 710.0, 711.0, 711.0, 711.0, 711.0, 710.0, 711.0, 711.0, 711.0, 712.0, 711.0, 711.0, 711.0, 711.0, 712.0, 712.0],
      "WindowWidth": [1551.0, 1544.0, 1543.0, 1544.0, 1545.0, 1547.0, 1546.0, 1547.0, 1549.0, 1548.0, 1547.0, 1549.0, 1548.0, 1549.0, 1549.0, 1549.0, 1551.0, 1550.0, 1550.0, 1549.0, 1549.0, 1550.0, 1550.0, 1551.0, 1552.0, 1551.0, 1551.0, 1552.0, 1553.0, 1552.0, 1552.0, 1550.0, 1550.0, 1549.0, 1549.0, 1553.0, 1554.0, 1552.0, 1551.0, 1552.0, 1549.0, 1547.0, 1550.0, 1552.0, 1552.0, 1552.0, 1552.0, 1552.0, 1551.0, 1552.0, 1555.0, 1552.0, 1550.0, 1550.0, 1550.0, 1551.0, 1550.0, 1552.0, 1552.0, 1552.0, 1554.0, 1554.0, 1555.0, 1552.0, 1552.0, 1553.0, 1555.0, 1553.0, 1550.0, 1553.0, 1552.0, 1554.0, 1555.0, 1555.0, 1555.0, 1554.0, 1554.0, 1552.0, 1551.0, 1552.0, 1551.0, 1554.0, 1552.0, 1553.0, 1552.0, 1551.0, 1551.0, 1550.0, 1549.0, 1549.0, 1550.0, 1551.0, 1553.0, 1552.0, 1553.0, 1553.0, 1552.0, 1552.0, 1551.0, 1553.0, 1553.0, 1555.0, 1554.0, 1554.0, 1553.0, 1551.0, 1551.0, 1555.0, 1556.0, 1551.0, 1549.0, 1547.0, 1550.0, 1550.0, 1549.0, 1552.0, 1548.0, 1548.0, 1551.0, 1550.0, 1549.0, 1550.0, 1553.0, 1551.0, 1550.0, 1553.0, 1551.0, 1554.0, 1555.0, 1553.0, 1553.0, 1554.0, 1553.0, 1554.0, 1554.0, 1553.0, 1553.0, 1553.0, 1553.0, 1551.0, 1550.0, 1551.0, 1551.0, 1551.0, 1550.0, 1551.0, 1551.0, 1550.0, 1552.0, 1554.0, 1555.0, 1553.0, 1554.0, 1552.0, 1552.0, 1553.0, 1555.0, 1555.0, 1555.0, 1555.0, 1554.0, 1555.0, 1558.0, 1557.0]
    },
    "slices": {}
  }
}