{
  "AcquisitionMatrixPE": 64,
  "AcquisitionNumber": 1,
  "AcquisitionTime": "11:17:28.482500",
  "BandwidthPerPixelPhaseEncode": 33.967,
  "BaseResolution": 64,
  "CoilCombinationMethod": "Sum of Squares",
  "CoilString": "C:HEA;HEP",
  "ConversionSoftware": "dcm2niix",
  "ConversionSoftwareVersion": "v1.0.20220720",
  "DerivedVendorReportedEchoSpacing": 0.000460005,
  "DeviceSerialNumber": "35193",
  "DwellTime": 3.1e-06,
  "EchoTime": 0.03,
  "EffectiveEchoSpacing": 0.000460005,
  "FlipAngle": 90,
  "HeudiconvVersion": "1.1.6",
  "ImageOrientationPatientDICOM": [0.999986, -0.00523597, 0, 0.00523597, 0.999986, 0],
  "ImageOrientationText": "Tra",
  "ImageType": [
    "ORIGINAL",
    "PRIMARY",
    "M",
    "ND",
    "MOSAIC"
],
  "ImagingFrequency": 123.254,
  "InPlanePhaseEncodingDirectionDICOM": "COL",
  "InstitutionAddress": "Xinjiekouwai Street No 19,Beijing,Haidian District,CN,100875",
  "InstitutionName": "BNU MRI Center",
  "InstitutionalDepartmentName": "Department",
  "MRAcquisitionType": "2D",
  "MagneticFieldStrength": 3,
  "Manufacturer": "Siemens",
  "ManufacturersModelName": "TrioTim",
  "MatrixCoilMode": "SENSE",
  "Modality": "MR",
  "NonlinearGradientCorrection": false,
  "PartialFourier": 1,
  "PatientPosition": "HFS",
  "PercentPhaseFOV": 100,
  "PercentSampling": 100,
  "PhaseEncodingDirection": "j-",
  "PhaseEncodingSteps": 64,
  "PhaseResolution": 1,
  "PixelBandwidth": 2520,
  "ProcedureStepDescription": "BNU_cst_2015^Guo.TaoMei",
  "ProtocolName": "ge_func_3x3x4_164",
  "PulseSequenceDetails": "%SiemensSeq%\\ep2d_bold",
  "ReceiveCoilName": "HeadMatrix",
  "ReconMatrixPE": 64,
  "RepetitionTime": 2,
  "SAR": 0.159832,
  "ScanOptions": "FS",
  "ScanningSequence": "EP",
  "SequenceName": "*epfid2d1_64",
  "SequenceVariant": "SK",
  "SeriesDescription": "ge_func_3x3x4_164",
  "SeriesNumber": 4,
  "ShimSetting": [-4492, -19488, -9744, 1335, -187, -351, 24, -32],
  "SliceThickness": 4,
  "SliceTiming": [0, 1.035, 0.0625, 1.095, 0.1225, 1.1575, 0.1825, 1.2175, 0.245, 1.2775, 0.305, 1.34, 0.365, 1.4, 0.4275, 1.46, 0.4875, 1.5225, 0.5475, 1.5825, 0.61, 1.6425, 0.67, 1.705, 0.73, 1.765, 0.7925, 1.825, 0.8525, 1.8875, 0.9125, 1.9475, 0.975],
  "SoftwareVersions": "syngo MR B17",
  "SpacingBetweenSlices": 4.6,
  "StationName": "MRC35193",
  "TaskName": "LanguageControl",
  "TotalReadoutTime": 0.0289803,
  "TxRefAmp": 337.384,
  "dcmmeta_affine": [
    [-3.1249570846557617, 0.016362404450774193, 0.0, 90.72030639648438],
    [0.016362404450774193, 3.1249570846557617, 0.0, -77.83100128173828],
    [0.0, 0.0, 4.599999904632568, -53.35903549194336],
    [0.0, 0.0, 0.0, 1.0]
],
  "dcmmeta_reorient_transform": [
    [0.0, -1.0, 0.0, 63.0],
    [1.0, 0.0, 0.0, 0.0],
    [0.0, 0.0, 1.0, 0.0],
    [0.0, 0.0, 0.0, 1.0]
],
  "dcmmeta_shape": [64, 64, 33, 164],
  "dcmmeta_slice_dim": 2,
  "dcmmeta_version": 0.6,
  "global": {
    "const": {
      "AcquisitionMatrix": [64, 0, 0, 64],
      "AngioFlag": "N",
      "BitsAllocated": 16,
      "BitsStored": 12,
      "Columns": 384,
      "EchoNumbers": 1,
      "EchoTime": 30.0,
      "EchoTrainLength": 1,
      "FlipAngle": 90.0,
      "HighBit": 11,
      "ImageOrientationPatient": [0.99998629221962, -0.0052359691413, 0.0, 0.0052359691413, 0.99998629221962, 0.0],
      "ImagePositionPatient": [-594.36227203109, -616.41645895319, -53.359035491943],
      "ImageType": [
        "ORIGINAL",
        "PRIMARY",
        "M",
        "ND",
        "MOSAIC"
],
      "ImagedNucleus": "1H",
      "ImagingFrequency": 123.253644,
      "InPlanePhaseEncodingDirection": "COL",
      "MRAcquisitionType": "2D",
      "MagneticFieldStrength": 3.0,
      "Manufacturer": "SIEMENS",
      "ManufacturerModelName": "TrioTim",
      "Modality": "MR",
      "NumberOfAverages": 1.0,
      "NumberOfPhaseEncodingSteps": 64,
      "PercentPhaseFieldOfView": 100.0,
      "PercentSampling": 100.0,
      "PerformedProcedureStepStartTime": "110155.312000",
      "PhotometricInterpretation": "MONOCHROME2",
      "PixelBandwidth": 2520.0,
      "PixelRepresentation": 0,
      "PixelSpacing": [3.125, 3.125],
      "ProtocolName": "ge_func_3x3x4_164",
      "RepetitionTime": 2000.0,
      "Rows": 384,
      "SAR": 0.15983177515075,
      "SamplesPerPixel": 1,
      "ScanOptions": "FS",
      "ScanningSequence": "EP",
      "SequenceName": "*epfid2d1_64",
      "SequenceVariant": "SK",
      "SeriesDescription": "ge_func_3x3x4_164",
      "SeriesNumber": 4,
      "SeriesTime": "111819.625000",
      "SliceLocation": -53.359035491943,
      "SliceThickness": 4.0,
      "SmallestImagePixelValue": 0,
      "SoftwareVersions": "syngo MR B17",
      "SpacingBetweenSlices": 4.6000000238419,
      "SpecificCharacterSet": "ISO_IR 100",
      "StudyID": "1",
      "StudyTime": "110154.468000",
      "TransmitCoilName": "Body",
      "VariableFlipAngleFlag": "N",
      "WindowCenterWidthExplanation": "Algo1",
      "dBdt": 0.0},
    "slices": {}
  },
  "time": {
    "samples": {
      "AcquisitionNumber": [1, 2, 3, 4, 5, 6, 7, 8, 9, 10, 11, 12, 13, 14, 15, 16, 17, 18, 19, 20, 21, 22, 23, 24, 25, 26, 27, 28, 29, 30, 31, 32, 33, 34, 35, 36, 37, 38, 39, 40, 41, 42, 43, 44, 45, 46, 47, 48, 49, 50, 51, 52, 53, 54, 55, 56, 57, 58, 59, 60, 61, 62, 63, 64, 65, 66, 67, 68, 69, 70, 71, 72, 73, 74, 75, 76, 77, 78, 79, 80, 81, 82, 83, 84, 85, 86, 87, 88, 89, 90, 91, 92, 93, 94, 95, 96, 97, 98, 99, 100, 101, 102, 103, 104, 105, 106, 107, 108, 109, 110, 111, 112, 113, 114, 115, 116, 117, 118, 119, 120, 121, 122, 123, 124, 125, 126, 127, 128, 129, 130, 131, 132, 133, 134, 135, 136, 137, 138, 139, 140, 141, 142, 143, 144, 145, 146, 147, 148, 149, 150, 151, 152, 153, 154, 155, 156, 157, 158, 159, 160, 161, 162, 163, 164],
      "AcquisitionTime": ["111728.482500", "111730.490000", "111732.500000", "111734.507500", "111736.515000", "111738.522500", "111740.532500", "111742.540000", "111744.547500", "111746.555000", "111748.562500", "111750.572500", "111752.580000", "111754.587500", "111756.595000", "111758.602500", "111800.612500", "111802.620000", "111804.627500", "111806.635000", "111808.645000", "111810.652500", "111812.660000", "111814.667500", "111816.675000", "111818.685000", "111820.692500", "111822.700000", "111824.707500", "111826.715000", "111828.725000", "111830.732500", "111832.740000", "111834.747500", "111836.755000", "111838.765000", "111840.772500", "111842.780000", "111844.787500", "111846.797500", "111848.805000", "111850.812500", "111852.820000", "111854.827500", "111856.837500", "111858.845000", "111900.852500", "111902.860000", "111904.867500", "111906.877500", "111908.885000", "111910.892500", "111912.900000", "111914.910000", "111916.917500", "111918.925000", "111920.932500", "111922.940000", "111924.950000", "111926.957500", "111928.965000", "111930.972500", "111932.980000", "111934.990000", "111936.997500", "111939.005000", "111941.012500", "111943.022500", "111945.030000", "111947.037500", "111949.045000", "111951.052500", "111953.062500", "111955.070000", "111957.077500", "111959.085000", "112001.092500", "112003.102500", "112005.110000", "112007.117500", "112009.125000", "112011.132500", "112013.142500", "112015.150000", "112017.157500", "112019.165000", "112021.175000", "112023.182500", "112025.190000", "112027.197500", "112029.205000", "112031.215000", "112033.222500", "112035.230000", "112037.237500", "112039.245000", "112041.255000", "112043.262500", "112045.270000", "112047.277500", "112049.287500", "112051.295000", "112053.302500", "112055.310000", "112057.317500", "112059.327500", "112101.335000", "112103.342500", "112105.350000", "112107.357500", "112109.367500", "112111.375000", "112113.382500", "112115.390000", "112117.400000", "112119.407500", "112121.415000", "112123.422500", "112125.430000", "112127.440000", "112129.447500", "112131.455000", "112133.462500", "112135.470000", "112137.480000", "112139.487500", "112141.495000", "112143.502500", "112145.512500", "112147.520000", "112149.527500", "112151.535000", "112153.542500", "112155.552500", "112157.560000", "112159.567500", "112201.575000", "112203.582500", "112205.592500", "112207.600000", "112209.607500", "112211.615000", "112213.622500", "112215.632500", "112217.640000", "112219.647500", "112221.655000", "112223.665000", "112225.672500", "112227.680000", "112229.687500", "112231.695000", "112233.705000", "112235.712500", "112237.720000", "112239.727500", "112241.735000", "112243.745000", "112245.752500", "112247.760000", "112249.767500", "112251.777500", "112253.785000", "112255.792500"],
      "ContentTime": ["111819.625000", "111819.640000", "111819.640000", "111819.640000", "111819.640000", "111819.640000", "111819.640000", "111819.640000", "111819.640000", "111819.656000", "111819.656000", "111819.656000", "111819.656000", "111819.656000", "111819.656000", "111819.656000", "111819.656000", "111819.671000", "111819.671000", "111819.671000", "111819.671000", "111819.687000", "111819.687000", "111819.687000", "111859.625000", "111859.625000", "111859.625000", "111859.640000", "111859.640000", "111859.640000", "111859.640000", "111859.656000", "111859.656000", "111859.656000", "111859.656000", "111859.656000", "111859.656000", "111859.656000", "111859.656000", "111859.656000", "111859.671000", "111859.671000", "111859.671000", "111859.671000", "111939.625000", "111939.640000", "111939.640000", "111939.640000", "111939.640000", "111939.640000", "111939.640000", "111939.640000", "111939.656000", "111939.656000", "111939.656000", "111939.656000", "111939.656000", "111939.656000", "111939.671000", "111939.671000", "111939.671000", "111939.671000", "111939.671000", "111939.671000", "112019.625000", "112019.625000", "112019.625000", "112019.625000", "112019.640000", "112019.640000", "112019.640000", "112019.640000", "112019.640000", "112019.640000", "112019.640000", "112019.640000", "112019.656000", "112019.656000", "112019.656000", "112019.656000", "112019.656000", "112019.656000", "112019.656000", "112019.671000", "112019.671000", "112119.625000", "112119.625000", "112119.625000", "112119.640000", "112119.640000", "112119.640000", "112119.640000", "112119.640000", "112119.640000", "112119.640000", "112119.640000", "112119.656000", "112119.656000", "112119.656000", "112119.656000", "112119.656000", "112119.656000", "112119.656000", "112119.656000", "112119.671000", "112119.671000", "112119.671000", "112119.671000", "112119.671000", "112119.671000", "112119.671000", "112119.671000", "112119.687000", "112119.687000", "112159.625000", "112159.625000", "112159.625000", "112159.640000", "112159.640000", "112159.640000", "112159.656000", "112159.656000", "112159.656000", "112159.656000", "112159.656000", "112159.656000", "112159.656000", "112159.656000", "112159.656000", "112159.671000", "112159.671000", "112159.671000", "112159.671000", "112159.671000", "112239.625000", "112239.625000", "112239.640000", "112239.640000", "112239.640000", "112239.656000", "112239.656000", "112239.656000", "112239.671000", "112239.671000", "112239.671000", "112239.671000", "112239.671000", "112239.671000", "112239.671000", "112239.671000", "112239.687000", "112239.687000", "112239.687000", "112239.687000", "112257.609000", "112257.609000", "112257.625000", "112257.625000", "112257.625000", "112257.625000", "112257.625000", "112257.640000", "112257.640000", "112257.640000"],
      "InstanceCreationTime": ["111819.625000", "111819.640000", "111819.640000", "111819.640000", "111819.640000", "111819.640000", "111819.640000", "111819.640000", "111819.640000", "111819.656000", "111819.656000", "111819.656000", "111819.656000", "111819.656000", "111819.656000", "111819.656000", "111819.656000", "111819.671000", "111819.671000", "111819.671000", "111819.671000", "111819.687000", "111819.687000", "111819.687000", "111859.625000", "111859.625000", "111859.625000", "111859.640000", "111859.640000", "111859.640000", "111859.640000", "111859.656000", "111859.656000", "111859.656000", "111859.656000", "111859.656000", "111859.656000", "111859.656000", "111859.656000", "111859.656000", "111859.671000", "111859.671000", "111859.671000", "111859.671000", "111939.625000", "111939.640000", "111939.640000", "111939.640000", "111939.640000", "111939.640000", "111939.640000", "111939.640000", "111939.656000", "111939.656000", "111939.656000", "111939.656000", "111939.656000", "111939.656000", "111939.671000", "111939.671000", "111939.671000", "111939.671000", "111939.671000", "111939.671000", "112019.625000", "112019.625000", "112019.625000", "112019.625000", "112019.640000", "112019.640000", "112019.640000", "112019.640000", "112019.640000", "112019.640000", "112019.640000", "112019.640000", "112019.656000", "112019.656000", "112019.656000", "112019.656000", "112019.656000", "112019.656000", "112019.656000", "112019.671000", "112019.671000", "112119.625000", "112119.625000", "112119.625000", "112119.640000", "112119.640000", "112119.640000", "112119.640000", "112119.640000", "112119.640000", "112119.640000", "112119.640000", "112119.656000", "112119.656000", "112119.656000", "112119.656000", "112119.656000", "112119.656000", "112119.656000", "112119.656000", "112119.671000", "112119.671000", "112119.671000", "112119.671000", "112119.671000", "112119.671000", "112119.671000", "112119.671000", "112119.687000", "112119.687000", "112159.625000", "112159.625000", "112159.625000", "112159.640000", "112159.640000", "112159.640000", "112159.656000", "112159.656000", "112159.656000", "112159.656000", "112159.656000", "112159.656000", "112159.656000", "112159.656000", "112159.656000", "112159.671000", "112159.671000", "112159.671000", "112159.671000", "112159.671000", "112239.625000", "112239.625000", "112239.640000", "112239.640000", "112239.640000", "112239.656000", "112239.656000", "112239.656000", "112239.671000", "112239.671000", "112239.671000", "112239.671000", "112239.671000", "112239.671000", "112239.671000", "112239.671000", "112239.687000", "112239.687000", "112239.687000", "112239.687000", "112257.609000", "112257.609000", "112257.625000", "112257.625000", "112257.625000", "112257.625000", "112257.625000", "112257.640000", "112257.640000", "112257.640000"],
      "InstanceNumber": [1, 2, 3, 4, 5, 6, 7, 8, 9, 10, 11, 12, 13, 14, 15, 16, 17, 18, 19, 20, 21, 22, 23, 24, 25, 26, 27, 28, 29, 30, 31, 32, 33, 34, 35, 36, 37, 38, 39, 40, 41, 42, 43, 44, 45, 46, 47, 48, 49, 50, 51, 52, 53, 54, 55, 56, 57, 58, 59, 60, 61, 62, 63, 64, 65, 66, 67, 68, 69, 70, 71, 72, 73, 74, 75, 76, 77, 78, 79, 80, 81, 82, 83, 84, 85, 86, 87, 88, 89, 90, 91, 92, 93, 94, 95, 96, 97, 98, 99, 100, 101, 102, 103, 104, 105, 106, 107, 108, 109, 110, 111, 112, 113, 114, 115, 116, 117, 118, 119, 120, 121, 122, 123, 124, 125, 126, 127, 128, 129, 130, 131, 132, 133, 134, 135, 136, 137, 138, 139, 140, 141, 142, 143, 144, 145, 146, 147, 148, 149, 150, 151, 152, 153, 154, 155, 156, 157, 158, 159, 160, 161, 162, 163, 164],
      "LargestImagePixelValue": [1837, 1752, 1748, 1733, 1725, 1735, 1722, 1726, 1717, 1722, 1704, 1691, 1708, 1706, 1712, 1694, 1707, 1758, 1708, 1715, 1732, 1728, 1717, 1704, 1733, 1722, 1719, 1697, 1722, 1701, 1710, 1717, 1732, 1746, 1732, 1718, 1717, 1741, 1714, 1714, 1720, 1732, 1723, 1720, 1720, 1713, 1720, 1717, 1740, 1724, 1734, 1722, 1703, 1708, 1675, 1688, 1701, 1696, 1717, 1679, 1684, 1720, 1686, 1717, 1723, 1719, 1695, 1706, 1682, 1691, 1698, 1711, 1704, 1704, 1699, 1716, 1693, 1717, 1701, 1718, 1712, 1733, 1750, 1755, 1718, 1701, 1742, 1735, 1715, 1723, 1712, 1732, 1715, 1720, 1719, 1719, 1726, 1750, 1739, 1733, 1750, 1732, 1726, 1727, 1771, 1765, 1755, 1752, 1747, 1773, 1773, 1756, 1771, 1751, 1776, 1780, 1771, 1781, 1776, 1774, 1780, 1776, 1781, 1746, 1751, 1782, 1760, 1760, 1755, 1769, 1787, 1781, 1781, 1853, 1743, 1769, 1762, 1768, 1762, 1765, 1762, 1768, 1774, 1764, 1785, 1780, 1772, 1766, 1761, 1745, 1755, 1762, 1765, 1760, 1756, 1757, 1761, 1760, 1741, 1745, 1764, 1741, 1746, 1755],
      "WindowCenter": [725.0, 722.0, 722.0, 722.0, 722.0, 722.0, 721.0, 721.0, 721.0, 721.0, 721.0, 721.0, 721.0, 721.0, 722.0, 721.0, 721.0, 721.0, 720.0, 721.0, 720.0, 720.0, 722.0, 722.0, 722.0, 721.0, 720.0, 720.0, 720.0, 721.0, 721.0, 721.0, 722.0, 721.0, 721.0, 721.0, 722.0, 722.0, 721.0, 721.0, 720.0, 720.0, 721.0, 721.0, 721.0, 721.0, 721.0, 721.0, 721.0, 721.0, 721.0, 721.0, 720.0, 720.0, 720.0, 720.0, 721.0, 721.0, 722.0, 722.0, 721.0, 721.0, 721.0, 721.0, 721.0, 721.0, 720.0, 720.0, 721.0, 722.0, 721.0, 721.0, 720.0, 720.0, 720.0, 720.0, 720.0, 720.0, 721.0, 721.0, 722.0, 722.0, 722.0, 721.0, 720.0, 721.0, 722.0, 722.0, 721.0, 720.0, 720.0, 720.0, 721.0, 721.0, 722.0, 722.0, 721.0, 721.0, 721.0, 722.0, 721.0, 720.0, 720.0, 721.0, 723.0, 723.0, 722.0, 721.0, 721.0, 722.0, 722.0, 721.0, 722.0, 722.0, 722.0, 722.0, 722.0, 722.0, 722.0, 723.0, 723.0, 723.0, 722.0, 722.0, 721.0, 722.0, 722.0, 722.0, 721.0, 721.0, 722.0, 723.0, 722.0, 723.0, 722.0, 723.0, 723.0, 722.0, 722.0, 722.0, 723.0, 723.0, 722.0, 722.0, 722.0, 723.0, 722.0, 722.0, 722.0, 722.0, 723.0, 723.0, 722.0, 722.0, 723.0, 723.0, 722.0, 722.0, 722.0, 722.0, 722.0, 722.0, 722.0, 722.0],
      "WindowWidth": [1595.0, 1585.0, 1584.0, 1584.0, 1583.0, 1584.0, 1583.0, 1583.0, 1582.0, 1581.0, 1581.0, 1580.0, 1581.0, 1581.0, 1584.0, 1583.0, 1583.0, 1582.0, 1579.0, 1580.0, 1580.0, 1580.0, 1584.0, 1585.0, 1584.0, 1582.0, 1579.0, 1579.0, 1579.0, 1582.0, 1583.0, 1583.0, 1583.0, 1582.0, 1583.0, 1581.0, 1584.0, 1585.0, 1583.0, 1580.0, 1578.0, 1579.0, 1583.0, 1583.0, 1581.0, 1581.0, 1581.0, 1582.0, 1582.0, 1582.0, 1582.0, 1580.0, 1579.0, 1578.0, 1578.0, 1579.0, 1580.0, 1582.0, 1583.0, 1584.0, 1583.0, 1582.0, 1580.0, 1582.0, 1582.0, 1581.0, 1578.0, 1579.0, 1582.0, 1584.0, 1582.0, 1580.0, 1578.0, 1578.0, 1579.0, 1579.0, 1578.0, 1579.0, 1581.0, 1582.0, 1583.0, 1585.0, 1585.0, 1582.0, 1579.0, 1581.0, 1584.0, 1584.0, 1581.0, 1579.0, 1579.0, 1580.0, 1581.0, 1580.0, 1584.0, 1584.0, 1582.0, 1582.0, 1582.0, 1583.0, 1582.0, 1578.0, 1578.0, 1581.0, 1586.0, 1586.0, 1583.0, 1580.0, 1581.0, 1584.0, 1584.0, 1582.0, 1584.0, 1584.0, 1585.0, 1584.0, 1584.0, 1585.0, 1585.0, 1587.0, 1586.0, 1586.0, 1585.0, 1583.0, 1581.0, 1584.0, 1585.0, 1584.0, 1582.0, 1582.0, 1585.0, 1586.0, 1586.0, 1587.0, 1585.0, 1587.0, 1587.0, 1585.0, 1584.0, 1585.0, 1588.0, 1587.0, 1585.0, 1583.0, 1585.0, 1587.0, 1585.0, 1584.0, 1584.0, 1583.0, 1586.0, 1587.0, 1585.0, 1586.0, 1587.0, 1587.0, 1584.0, 1584.0, 1583.0, 1583.0, 1585.0, 1584.0, 1586.0, 1586.0]
    },
    "slices": {}
  }
}