{
  "AcquisitionMatrixPE": 64,
  "AcquisitionNumber": 1,
  "AcquisitionTime": "11:04:48.562500",
  "BandwidthPerPixelPhaseEncode": 33.967,
  "BaseResolution": 64,
  "CoilCombinationMethod": "Sum of Squares",
  "CoilString": "C:HEA;HEP",
  "ConversionSoftware": "dcm2niix",
  "ConversionSoftwareVersion": "v1.0.20220720",
  "DerivedVendorReportedEchoSpacing": 0.000460005,
  "DeviceSerialNumber": "35193",
  "DwellTime": 3.1e-06,
  "EchoTime": 0.03,
  "EffectiveEchoSpacing": 0.000460005,
  "FlipAngle": 90,
  "HeudiconvVersion": "1.1.6",
  "ImageOrientationPatientDICOM": [0.999986, -0.00523597, 0, 0.00523597, 0.999986, 0],
  "ImageOrientationText": "Tra",
  "ImageType": [
    "ORIGINAL",
    "PRIMARY",
    "M",
    "ND",
    "MOSAIC"
],
  "ImagingFrequency": 123.254,
  "InPlanePhaseEncodingDirectionDICOM": "COL",
  "InstitutionAddress": "Xinjiekouwai Street No 19,Beijing,Haidian District,CN,100875",
  "InstitutionName": "BNU MRI Center",
  "InstitutionalDepartmentName": "Department",
  "MRAcquisitionType": "2D",
  "MagneticFieldStrength": 3,
  "Manufacturer": "Siemens",
  "ManufacturersModelName": "TrioTim",
  "MatrixCoilMode": "SENSE",
  "Modality": "MR",
  "NonlinearGradientCorrection": false,
  "PartialFourier": 1,
  "PatientPosition": "HFS",
  "PercentPhaseFOV": 100,
  "PercentSampling": 100,
  "PhaseEncodingDirection": "j-",
  "PhaseEncodingSteps": 64,
  "PhaseResolution": 1,
  "PixelBandwidth": 2520,
  "ProcedureStepDescription": "BNU_cst_2015^Guo.TaoMei",
  "ProtocolName": "ge_func_3x3x4_164",
  "PulseSequenceDetails": "%SiemensSeq%\\ep2d_bold",
  "ReceiveCoilName": "HeadMatrix",
  "ReconMatrixPE": 64,
  "RepetitionTime": 2,
  "SAR": 0.159832,
  "ScanOptions": "FS",
  "ScanningSequence": "EP",
  "SequenceName": "*epfid2d1_64",
  "SequenceVariant": "SK",
  "SeriesDescription": "ge_func_3x3x4_164",
  "SeriesNumber": 2,
  "ShimSetting": [-4492, -19488, -9744, 1335, -187, -351, 24, -32],
  "SliceThickness": 4,
  "SliceTiming": [0, 1.035, 0.0625, 1.095, 0.1225, 1.1575, 0.1825, 1.2175, 0.245, 1.2775, 0.305, 1.34, 0.365, 1.4, 0.4275, 1.46, 0.4875, 1.5225, 0.5475, 1.5825, 0.61, 1.6425, 0.67, 1.705, 0.73, 1.765, 0.7925, 1.825, 0.8525, 1.8875, 0.9125, 1.9475, 0.975],
  "SoftwareVersions": "syngo MR B17",
  "SpacingBetweenSlices": 4.6,
  "StationName": "MRC35193",
  "TaskName": "CognitiveControl",
  "TotalReadoutTime": 0.0289803,
  "TxRefAmp": 337.384,
  "dcmmeta_affine": [
    [-3.1249570846557617, 0.016362404450774193, 0.0, 90.72030639648438],
    [0.016362404450774193, 3.1249570846557617, 0.0, -77.83100128173828],
    [0.0, 0.0, 4.599999904632568, -53.35903549194336],
    [0.0, 0.0, 0.0, 1.0]
],
  "dcmmeta_reorient_transform": [
    [0.0, -1.0, 0.0, 63.0],
    [1.0, 0.0, 0.0, 0.0],
    [0.0, 0.0, 1.0, 0.0],
    [0.0, 0.0, 0.0, 1.0]
],
  "dcmmeta_shape": [64, 64, 33, 164],
  "dcmmeta_slice_dim": 2,
  "dcmmeta_version": 0.6,
  "global": {
    "const": {
      "AcquisitionMatrix": [64, 0, 0, 64],
      "AngioFlag": "N",
      "BitsAllocated": 16,
      "BitsStored": 12,
      "Columns": 384,
      "EchoNumbers": 1,
      "EchoTime": 30.0,
      "EchoTrainLength": 1,
      "FlipAngle": 90.0,
      "HighBit": 11,
      "ImageOrientationPatient": [0.99998629221962, -0.0052359691413, 0.0, 0.0052359691413, 0.99998629221962, 0.0],
      "ImagePositionPatient": [-594.36227203109, -616.41645895319, -53.359035491943],
      "ImageType": [
        "ORIGINAL",
        "PRIMARY",
        "M",
        "ND",
        "MOSAIC"
],
      "ImagedNucleus": "1H",
      "ImagingFrequency": 123.253639,
      "InPlanePhaseEncodingDirection": "COL",
      "MRAcquisitionType": "2D",
      "MagneticFieldStrength": 3.0,
      "Manufacturer": "SIEMENS",
      "ManufacturerModelName": "TrioTim",
      "Modality": "MR",
      "NumberOfAverages": 1.0,
      "NumberOfPhaseEncodingSteps": 64,
      "PercentPhaseFieldOfView": 100.0,
      "PercentSampling": 100.0,
      "PerformedProcedureStepStartTime": "110155.312000",
      "PhotometricInterpretation": "MONOCHROME2",
      "PixelBandwidth": 2520.0,
      "PixelRepresentation": 0,
      "PixelSpacing": [3.125, 3.125],
      "ProtocolName": "ge_func_3x3x4_164",
      "RepetitionTime": 2000.0,
      "Rows": 384,
      "SAR": 0.15983177515075,
      "SamplesPerPixel": 1,
      "ScanOptions": "FS",
      "ScanningSequence": "EP",
      "SequenceName": "*epfid2d1_64",
      "SequenceVariant": "SK",
      "SeriesDescription": "ge_func_3x3x4_164",
      "SeriesNumber": 2,
      "SeriesTime": "110546.921000",
      "SliceLocation": -53.359035491943,
      "SliceThickness": 4.0,
      "SmallestImagePixelValue": 0,
      "SoftwareVersions": "syngo MR B17",
      "SpacingBetweenSlices": 4.6000000238419,
      "SpecificCharacterSet": "ISO_IR 100",
      "StudyID": "1",
      "StudyTime": "110154.468000",
      "TransmitCoilName": "Body",
      "VariableFlipAngleFlag": "N",
      "WindowCenterWidthExplanation": "Algo1",
      "dBdt": 0.0},
    "slices": {}
  },
  "time": {
    "samples": {
      "AcquisitionNumber": [1, 2, 3, 4, 5, 6, 7, 8, 9, 10, 11, 12, 13, 14, 15, 16, 17, 18, 19, 20, 21, 22, 23, 24, 25, 26, 27, 28, 29, 30, 31, 32, 33, 34, 35, 36, 37, 38, 39, 40, 41, 42, 43, 44, 45, 46, 47, 48, 49, 50, 51, 52, 53, 54, 55, 56, 57, 58, 59, 60, 61, 62, 63, 64, 65, 66, 67, 68, 69, 70, 71, 72, 73, 74, 75, 76, 77, 78, 79, 80, 81, 82, 83, 84, 85, 86, 87, 88, 89, 90, 91, 92, 93, 94, 95, 96, 97, 98, 99, 100, 101, 102, 103, 104, 105, 106, 107, 108, 109, 110, 111, 112, 113, 114, 115, 116, 117, 118, 119, 120, 121, 122, 123, 124, 125, 126, 127, 128, 129, 130, 131, 132, 133, 134, 135, 136, 137, 138, 139, 140, 141, 142, 143, 144, 145, 146, 147, 148, 149, 150, 151, 152, 153, 154, 155, 156, 157, 158, 159, 160, 161, 162, 163, 164],
      "AcquisitionTime": ["110448.562500", "110450.570000", "110452.580000", "110454.587500", "110456.595000", "110458.602500", "110500.610000", "110502.620000", "110504.627500", "110506.635000", "110508.642500", "110510.652500", "110512.660000", "110514.667500", "110516.675000", "110518.682500", "110520.692500", "110522.700000", "110524.707500", "110526.715000", "110528.722500", "110530.732500", "110532.740000", "110534.747500", "110536.755000", "110538.765000", "110540.772500", "110542.780000", "110544.787500", "110546.795000", "110548.805000", "110550.812500", "110552.820000", "110554.827500", "110556.835000", "110558.845000", "110600.852500", "110602.860000", "110604.867500", "110606.875000", "110608.885000", "110610.892500", "110612.900000", "110614.907500", "110616.917500", "110618.925000", "110620.932500", "110622.940000", "110624.947500", "110626.957500", "110628.965000", "110630.972500", "110632.980000", "110634.987500", "110636.997500", "110639.005000", "110641.012500", "110643.020000", "110645.030000", "110647.037500", "110649.045000", "110651.052500", "110653.060000", "110655.070000", "110657.077500", "110659.085000", "110701.092500", "110703.100000", "110705.110000", "110707.117500", "110709.125000", "110711.132500", "110713.142500", "110715.150000", "110717.157500", "110719.165000", "110721.172500", "110723.182500", "110725.190000", "110727.197500", "110729.205000", "110731.212500", "110733.222500", "110735.230000", "110737.237500", "110739.245000", "110741.252500", "110743.262500", "110745.270000", "110747.277500", "110749.285000", "110751.295000", "110753.302500", "110755.310000", "110757.317500", "110759.325000", "110801.335000", "110803.342500", "110805.350000", "110807.357500", "110809.365000", "110811.375000", "110813.382500", "110815.390000", "110817.397500", "110819.407500", "110821.415000", "110823.422500", "110825.430000", "110827.437500", "110829.447500", "110831.455000", "110833.462500", "110835.470000", "110837.477500", "110839.487500", "110841.495000", "110843.502500", "110845.510000", "110847.520000", "110849.527500", "110851.535000", "110853.542500", "110855.550000", "110857.560000", "110859.567500", "110901.575000", "110903.582500", "110905.590000", "110907.600000", "110909.607500", "110911.615000", "110913.622500", "110915.632500", "110917.640000", "110919.647500", "110921.655000", "110923.662500", "110925.672500", "110927.680000", "110929.687500", "110931.695000", "110933.702500", "110935.712500", "110937.720000", "110939.727500", "110941.735000", "110943.742500", "110945.752500", "110947.760000", "110949.767500", "110951.775000", "110953.785000", "110955.792500", "110957.800000", "110959.807500", "111001.815000", "111003.825000", "111005.832500", "111007.840000", "111009.847500", "111011.855000", "111013.865000", "111015.872500"],
      "ContentTime": ["110546.921000", "110546.937000", "110546.937000", "110546.937000", "110546.937000", "110546.937000", "110546.937000", "110546.937000", "110546.953000", "110546.953000", "110546.953000", "110546.953000", "110546.953000", "110546.953000", "110546.953000", "110546.953000", "110546.968000", "110546.968000", "110546.968000", "110546.968000", "110546.984000", "110546.984000", "110546.984000", "110546.984000", "110547.000000", "110547.000000", "110547.000000", "110547.000000", "110626.921000", "110626.921000", "110626.921000", "110626.937000", "110626.937000", "110626.937000", "110626.937000", "110626.937000", "110626.937000", "110626.953000", "110626.953000", "110626.953000", "110626.953000", "110626.953000", "110626.953000", "110626.953000", "110626.953000", "110626.968000", "110626.968000", "110626.968000", "110646.921000", "110646.921000", "110646.921000", "110646.921000", "110646.937000", "110646.937000", "110646.937000", "110646.937000", "110646.937000", "110646.937000", "110726.921000", "110726.921000", "110726.921000", "110726.921000", "110726.937000", "110726.937000", "110726.937000", "110726.937000", "110726.937000", "110726.937000", "110726.937000", "110726.937000", "110726.937000", "110726.953000", "110726.953000", "110726.953000", "110726.968000", "110726.968000", "110726.968000", "110726.968000", "110806.921000", "110806.921000", "110806.937000", "110806.937000", "110806.937000", "110806.937000", "110806.937000", "110806.953000", "110806.953000", "110806.953000", "110806.953000", "110806.953000", "110806.953000", "110806.953000", "110806.968000", "110806.968000", "110806.968000", "110806.968000", "110806.968000", "110806.968000", "110846.921000", "110846.921000", "110846.921000", "110846.921000", "110846.937000", "110846.937000", "110846.937000", "110846.937000", "110846.937000", "110846.937000", "110846.937000", "110846.937000", "110846.937000", "110846.953000", "110846.953000", "110846.953000", "110846.953000", "110846.953000", "110846.953000", "110846.953000", "110926.921000", "110926.921000", "110926.921000", "110926.921000", "110926.937000", "110926.937000", "110926.937000", "110926.937000", "110926.937000", "110926.937000", "110926.937000", "110926.937000", "110926.937000", "110926.953000", "110926.953000", "110926.953000", "110926.953000", "110926.953000", "110926.953000", "110926.953000", "111006.921000", "111006.937000", "111006.937000", "111006.937000", "111006.937000", "111006.937000", "111006.937000", "111006.937000", "111006.937000", "111006.953000", "111006.953000", "111006.953000", "111006.953000", "111006.953000", "111006.953000", "111006.953000", "111006.953000", "111006.968000", "111006.968000", "111006.968000", "111017.015000", "111017.015000", "111017.031000", "111017.031000", "111017.031000", "111017.031000"],
      "InstanceCreationTime": ["110546.921000", "110546.937000", "110546.937000", "110546.937000", "110546.937000", "110546.937000", "110546.937000", "110546.937000", "110546.953000", "110546.953000", "110546.953000", "110546.953000", "110546.953000", "110546.953000", "110546.953000", "110546.953000", "110546.968000", "110546.968000", "110546.968000", "110546.968000", "110546.984000", "110546.984000", "110546.984000", "110546.984000", "110547.000000", "110547.000000", "110547.000000", "110547.000000", "110626.921000", "110626.921000", "110626.921000", "110626.937000", "110626.937000", "110626.937000", "110626.937000", "110626.937000", "110626.937000", "110626.953000", "110626.953000", "110626.953000", "110626.953000", "110626.953000", "110626.953000", "110626.953000", "110626.953000", "110626.968000", "110626.968000", "110626.968000", "110646.921000", "110646.921000", "110646.921000", "110646.921000", "110646.937000", "110646.937000", "110646.937000", "110646.937000", "110646.937000", "110646.937000", "110726.921000", "110726.921000", "110726.921000", "110726.921000", "110726.937000", "110726.937000", "110726.937000", "110726.937000", "110726.937000", "110726.937000", "110726.937000", "110726.937000", "110726.937000", "110726.953000", "110726.953000", "110726.953000", "110726.968000", "110726.968000", "110726.968000", "110726.968000", "110806.921000", "110806.921000", "110806.937000", "110806.937000", "110806.937000", "110806.937000", "110806.937000", "110806.953000", "110806.953000", "110806.953000", "110806.953000", "110806.953000", "110806.953000", "110806.953000", "110806.968000", "110806.968000", "110806.968000", "110806.968000", "110806.968000", "110806.968000", "110846.921000", "110846.921000", "110846.921000", "110846.921000", "110846.937000", "110846.937000", "110846.937000", "110846.937000", "110846.937000", "110846.937000", "110846.937000", "110846.937000", "110846.937000", "110846.953000", "110846.953000", "110846.953000", "110846.953000", "110846.953000", "110846.953000", "110846.953000", "110926.921000", "110926.921000", "110926.921000", "110926.921000", "110926.937000", "110926.937000", "110926.937000", "110926.937000", "110926.937000", "110926.937000", "110926.937000", "110926.937000", "110926.937000", "110926.953000", "110926.953000", "110926.953000", "110926.953000", "110926.953000", "110926.953000", "110926.953000", "111006.921000", "111006.937000", "111006.937000", "111006.937000", "111006.937000", "111006.937000", "111006.937000", "111006.937000", "111006.937000", "111006.953000", "111006.953000", "111006.953000", "111006.953000", "111006.953000", "111006.953000", "111006.953000", "111006.953000", "111006.968000", "111006.968000", "111006.968000", "111017.015000", "111017.015000", "111017.031000", "111017.031000", "111017.031000", "111017.031000"],
      "InstanceNumber": [1, 2, 3, 4, 5, 6, 7, 8, 9, 10, 11, 12, 13, 14, 15, 16, 17, 18, 19, 20, 21, 22, 23, 24, 25, 26, 27, 28, 29, 30, 31, 32, 33, 34, 35, 36, 37, 38, 39, 40, 41, 42, 43, 44, 45, 46, 47, 48, 49, 50, 51, 52, 53, 54, 55, 56, 57, 58, 59, 60, 61, 62, 63, 64, 65, 66, 67, 68, 69, 70, 71, 72, 73, 74, 75, 76, 77, 78, 79, 80, 81, 82, 83, 84, 85, 86, 87, 88, 89, 90, 91, 92, 93, 94, 95, 96, 97, 98, 99, 100, 101, 102, 103, 104, 105, 106, 107, 108, 109, 110, 111, 112, 113, 114, 115, 116, 117, 118, 119, 120, 121, 122, 123, 124, 125, 126, 127, 128, 129, 130, 131, 132, 133, 134, 135, 136, 137, 138, 139, 140, 141, 142, 143, 144, 145, 146, 147, 148, 149, 150, 151, 152, 153, 154, 155, 156, 157, 158, 159, 160, 161, 162, 163, 164],
      "LargestImagePixelValue": [1715, 1693, 1716, 1687, 1683, 1687, 1681, 1667, 1685, 1692, 1678, 1692, 1678, 1743, 1673, 1691, 1708, 1760, 1700, 1698, 1677, 1704, 1704, 1685, 1886, 1695, 1676, 1715, 1805, 1668, 1694, 1698, 1680, 1701, 1694, 1665, 1694, 1769, 1688, 1698, 1679, 1695, 1851, 1687, 1701, 1701, 1702, 1685, 1840, 1693, 1707, 1705, 1687, 1708, 1704, 1704, 1712, 1717, 1683, 1724, 1708, 1701, 1710, 1704, 1708, 1715, 1705, 1706, 1721, 1720, 1725, 1716, 1739, 1725, 1727, 1741, 1735, 1721, 1719, 1731, 1738, 1715, 1731, 1728, 1731, 1754, 1746, 1720, 1739, 1727, 1731, 1736, 1731, 1727, 1744, 1719, 1739, 1737, 1748, 1747, 1736, 1757, 1762, 2029, 1721, 1753, 1742, 1717, 1737, 1747, 1749, 1743, 1737, 1768, 1746, 1752, 1761, 1772, 1763, 1757, 1767, 1750, 1745, 1753, 1736, 1750, 1753, 1731, 1757, 1749, 1762, 1749, 1733, 1731, 1765, 1765, 1743, 1740, 1748, 1733, 1746, 1742, 1728, 1750, 1742, 1742, 1744, 1741, 1745, 1751, 1752, 1761, 1754, 1736, 1751, 1752, 1764, 1762, 1751, 1760, 1760, 1764, 1763, 1762],
      "WindowCenter": [723.0, 721.0, 721.0, 719.0, 719.0, 719.0, 718.0, 718.0, 718.0, 719.0, 718.0, 719.0, 719.0, 718.0, 718.0, 720.0, 721.0, 720.0, 719.0, 719.0, 719.0, 719.0, 719.0, 719.0, 720.0, 719.0, 719.0, 719.0, 719.0, 718.0, 719.0, 719.0, 719.0, 719.0, 718.0, 719.0, 720.0, 720.0, 718.0, 718.0, 718.0, 719.0, 719.0, 718.0, 719.0, 719.0, 719.0, 719.0, 719.0, 719.0, 719.0, 719.0, 718.0, 719.0, 720.0, 720.0, 720.0, 719.0, 718.0, 719.0, 720.0, 720.0, 718.0, 719.0, 719.0, 720.0, 720.0, 719.0, 720.0, 720.0, 721.0, 719.0, 719.0, 719.0, 719.0, 720.0, 720.0, 720.0, 719.0, 720.0, 720.0, 720.0, 719.0, 720.0, 720.0, 720.0, 720.0, 720.0, 720.0, 720.0, 720.0, 720.0, 720.0, 720.0, 721.0, 720.0, 720.0, 719.0, 719.0, 720.0, 721.0, 721.0, 722.0, 723.0, 720.0, 720.0, 719.0, 719.0, 719.0, 720.0, 720.0, 720.0, 720.0, 721.0, 721.0, 721.0, 720.0, 720.0, 721.0, 720.0, 721.0, 721.0, 721.0, 721.0, 721.0, 720.0, 720.0, 720.0, 721.0, 721.0, 721.0, 720.0, 720.0, 721.0, 721.0, 722.0, 721.0, 720.0, 720.0, 720.0, 720.0, 721.0, 720.0, 721.0, 722.0, 721.0, 720.0, 719.0, 719.0, 720.0, 721.0, 721.0, 721.0, 720.0, 720.0, 720.0, 720.0, 721.0, 721.0, 721.0, 721.0, 721.0, 722.0, 721.0],
      "WindowWidth": [1588.0, 1582.0, 1581.0, 1576.0, 1575.0, 1574.0, 1574.0, 1574.0, 1574.0, 1574.0, 1573.0, 1574.0, 1574.0, 1574.0, 1573.0, 1579.0, 1581.0, 1579.0, 1576.0, 1575.0, 1575.0, 1576.0, 1576.0, 1576.0, 1578.0, 1574.0, 1575.0, 1575.0, 1577.0, 1574.0, 1575.0, 1575.0, 1576.0, 1574.0, 1572.0, 1576.0, 1579.0, 1577.0, 1573.0, 1574.0, 1573.0, 1574.0, 1576.0, 1573.0, 1575.0, 1574.0, 1576.0, 1575.0, 1576.0, 1574.0, 1577.0, 1575.0, 1574.0, 1575.0, 1578.0, 1578.0, 1578.0, 1576.0, 1573.0, 1576.0, 1579.0, 1577.0, 1573.0, 1575.0, 1577.0, 1577.0, 1577.0, 1576.0, 1579.0, 1580.0, 1580.0, 1576.0, 1576.0, 1576.0, 1577.0, 1578.0, 1578.0, 1577.0, 1577.0, 1577.0, 1578.0, 1577.0, 1577.0, 1577.0, 1579.0, 1579.0, 1579.0, 1580.0, 1580.0, 1578.0, 1577.0, 1579.0, 1578.0, 1579.0, 1582.0, 1578.0, 1578.0, 1576.0, 1575.0, 1579.0, 1583.0, 1583.0, 1584.0, 1587.0, 1578.0, 1577.0, 1576.0, 1577.0, 1577.0, 1579.0, 1579.0, 1578.0, 1577.0, 1581.0, 1581.0, 1580.0, 1579.0, 1580.0, 1581.0, 1579.0, 1580.0, 1580.0, 1580.0, 1581.0, 1581.0, 1579.0, 1578.0, 1578.0, 1582.0, 1580.0, 1582.0, 1580.0, 1579.0, 1580.0, 1582.0, 1583.0, 1580.0, 1578.0, 1577.0, 1578.0, 1579.0, 1580.0, 1579.0, 1582.0, 1583.0, 1581.0, 1579.0, 1576.0, 1576.0, 1580.0, 1581.0, 1581.0, 1581.0, 1579.0, 1577.0, 1577.0, 1579.0, 1581.0, 1581.0, 1580.0, 1580.0, 1582.0, 1584.0, 1581.0]
    },
    "slices": {}
  }
}