{
  "AcquisitionMatrixPE": 64,
  "AcquisitionNumber": 1,
  "AcquisitionTime": "09:33:40.927500",
  "BandwidthPerPixelPhaseEncode": 33.967,
  "BaseResolution": 64,
  "CoilCombinationMethod": "Sum of Squares",
  "CoilString": "C:HEA;HEP",
  "ConversionSoftware": "dcm2niix",
  "ConversionSoftwareVersion": "v1.0.20220720",
  "DerivedVendorReportedEchoSpacing": 0.000460005,
  "DeviceSerialNumber": "35193",
  "DwellTime": 3.1e-06,
  "EchoTime": 0.03,
  "EffectiveEchoSpacing": 0.000460005,
  "FlipAngle": 90,
  "HeudiconvVersion": "1.1.6",
  "ImageOrientationPatientDICOM": [0.993498, -0.0122171, -0.113195, 0.0121385, 0.999925, -0.00138301],
  "ImageOrientationText": "Tra>Sag(-6.5)",
  "ImageType": [
    "ORIGINAL",
    "PRIMARY",
    "M",
    "ND",
    "MOSAIC"
],
  "ImagingFrequency": 123.254,
  "InPlanePhaseEncodingDirectionDICOM": "COL",
  "InstitutionAddress": "Xinjiekouwai Street No 19,Beijing,Haidian District,CN,100875",
  "InstitutionName": "BNU MRI Center",
  "InstitutionalDepartmentName": "Department",
  "MRAcquisitionType": "2D",
  "MagneticFieldStrength": 3,
  "Manufacturer": "Siemens",
  "ManufacturersModelName": "TrioTim",
  "MatrixCoilMode": "SENSE",
  "Modality": "MR",
  "NonlinearGradientCorrection": false,
  "PartialFourier": 1,
  "PatientPosition": "HFS",
  "PercentPhaseFOV": 100,
  "PercentSampling": 100,
  "PhaseEncodingDirection": "j-",
  "PhaseEncodingSteps": 64,
  "PhaseResolution": 1,
  "PixelBandwidth": 2520,
  "ProcedureStepDescription": "BNU_cst_2015^Guo.TaoMei",
  "ProtocolName": "ge_func_3x3x4_164",
  "PulseSequenceDetails": "%SiemensSeq%\\ep2d_bold",
  "ReceiveCoilName": "HeadMatrix",
  "ReconMatrixPE": 64,
  "RepetitionTime": 2,
  "SAR": 0.136695,
  "ScanOptions": "FS",
  "ScanningSequence": "EP",
  "SequenceName": "*epfid2d1_64",
  "SequenceVariant": "SK",
  "SeriesDescription": "ge_func_3x3x4_164",
  "SeriesNumber": 2,
  "ShimSetting": [-4537, -19455, -9787, 1156, -84, -105, -124, -1],
  "SliceThickness": 4,
  "SliceTiming": [0, 1.0325, 0.06, 1.095, 0.12, 1.155, 0.1825, 1.215, 0.2425, 1.2775, 0.3025, 1.3375, 0.365, 1.3975, 0.425, 1.46, 0.485, 1.52, 0.5475, 1.58, 0.6075, 1.6425, 0.6675, 1.7025, 0.73, 1.7625, 0.79, 1.825, 0.85, 1.885, 0.9125, 1.945, 0.9725],
  "SoftwareVersions": "syngo MR B17",
  "SpacingBetweenSlices": 4.6,
  "StationName": "MRC35193",
  "TaskName": "LanguageControl",
  "TotalReadoutTime": 0.0289803,
  "TxRefAmp": 315.009,
  "dcmmeta_affine": [
    [-3.104680299758911, 0.03793288767337799, -0.5207347869873047, 106.50560760498047],
    [0.038178302347660065, 3.1247668266296387, 5.381488143996194e-09, -92.69188690185547],
    [-0.3537336587905884, 0.0043219029903411865, 4.570430278778076, -36.977535247802734],
    [0.0, 0.0, 0.0, 1.0]
],
  "dcmmeta_reorient_transform": [
    [0.0, -1.0, 0.0, 63.0],
    [1.0, 0.0, 0.0, 0.0],
    [0.0, 0.0, 1.0, 0.0],
    [0.0, 0.0, 0.0, 1.0]
],
  "dcmmeta_shape": [64, 64, 33, 164],
  "dcmmeta_slice_dim": 2,
  "dcmmeta_version": 0.6,
  "global": {
    "const": {
      "AcquisitionMatrix": [64, 0, 0, 64],
      "AngioFlag": "N",
      "BitsAllocated": 16,
      "BitsStored": 12,
      "Columns": 384,
      "EchoNumbers": 1,
      "EchoTime": 30.0,
      "EchoTrainLength": 1,
      "FlipAngle": 90.0,
      "HighBit": 11,
      "ImageOrientationPatient": [0.99349770391567, -0.0122170566883, -0.1131947694912, 0.01213852381133, 0.99992536897804, -0.0013830089687],
      "ImagePositionPatient": [-611.713493228, -598.0225775342, 20.583634544218],
      "ImageType": [
        "ORIGINAL",
        "PRIMARY",
        "M",
        "ND",
        "MOSAIC"
],
      "ImagedNucleus": "1H",
      "ImagingFrequency": 123.253592,
      "InPlanePhaseEncodingDirection": "COL",
      "MRAcquisitionType": "2D",
      "MagneticFieldStrength": 3.0,
      "Manufacturer": "SIEMENS",
      "ManufacturerModelName": "TrioTim",
      "Modality": "MR",
      "NumberOfAverages": 1.0,
      "NumberOfPhaseEncodingSteps": 64,
      "PercentPhaseFieldOfView": 100.0,
      "PercentSampling": 100.0,
      "PerformedProcedureStepStartTime": "093134.953000",
      "PhotometricInterpretation": "MONOCHROME2",
      "PixelBandwidth": 2520.0,
      "PixelRepresentation": 0,
      "PixelSpacing": [3.125, 3.125],
      "ProtocolName": "ge_func_3x3x4_164",
      "RepetitionTime": 2000.0,
      "Rows": 384,
      "SAR": 0.13669492746282,
      "SamplesPerPixel": 1,
      "ScanOptions": "FS",
      "ScanningSequence": "EP",
      "SequenceName": "*epfid2d1_64",
      "SequenceVariant": "SK",
      "SeriesDescription": "ge_func_3x3x4_164",
      "SeriesNumber": 2,
      "SeriesTime": "093430.703000",
      "SliceLocation": -48.796615235672,
      "SliceThickness": 4.0,
      "SmallestImagePixelValue": 0,
      "SoftwareVersions": "syngo MR B17",
      "SpacingBetweenSlices": 4.5999999816197,
      "SpecificCharacterSet": "ISO_IR 100",
      "StudyID": "1",
      "StudyTime": "093134.875000",
      "TransmitCoilName": "Body",
      "VariableFlipAngleFlag": "N",
      "WindowCenterWidthExplanation": "Algo1",
      "dBdt": 0.0},
    "slices": {}
  },
  "time": {
    "samples": {
      "AcquisitionNumber": [1, 2, 3, 4, 5, 6, 7, 8, 9, 10, 11, 12, 13, 14, 15, 16, 17, 18, 19, 20, 21, 22, 23, 24, 25, 26, 27, 28, 29, 30, 31, 32, 33, 34, 35, 36, 37, 38, 39, 40, 41, 42, 43, 44, 45, 46, 47, 48, 49, 50, 51, 52, 53, 54, 55, 56, 57, 58, 59, 60, 61, 62, 63, 64, 65, 66, 67, 68, 69, 70, 71, 72, 73, 74, 75, 76, 77, 78, 79, 80, 81, 82, 83, 84, 85, 86, 87, 88, 89, 90, 91, 92, 93, 94, 95, 96, 97, 98, 99, 100, 101, 102, 103, 104, 105, 106, 107, 108, 109, 110, 111, 112, 113, 114, 115, 116, 117, 118, 119, 120, 121, 122, 123, 124, 125, 126, 127, 128, 129, 130, 131, 132, 133, 134, 135, 136, 137, 138, 139, 140, 141, 142, 143, 144, 145, 146, 147, 148, 149, 150, 151, 152, 153, 154, 155, 156, 157, 158, 159, 160, 161, 162, 163, 164],
      "AcquisitionTime": ["093340.927500", "093342.935000", "093344.942500", "093346.950000", "093348.957500", "093350.967500", "093352.975000", "093354.982500", "093356.990000", "093359.000000", "093401.007500", "093403.015000", "093405.022500", "093407.030000", "093409.040000", "093411.047500", "093413.055000", "093415.062500", "093417.070000", "093419.080000", "093421.087500", "093423.095000", "093425.102500", "093427.112500", "093429.120000", "093431.127500", "093433.135000", "093435.142500", "093437.152500", "093439.160000", "093441.167500", "093443.175000", "093445.182500", "093447.192500", "093449.200000", "093451.207500", "093453.215000", "093455.225000", "093457.232500", "093459.240000", "093501.247500", "093503.255000", "093505.265000", "093507.272500", "093509.280000", "093511.287500", "093513.295000", "093515.305000", "093517.312500", "093519.320000", "093521.327500", "093523.335000", "093525.345000", "093527.352500", "093529.360000", "093531.367500", "093533.377500", "093535.385000", "093537.392500", "093539.400000", "093541.407500", "093543.417500", "093545.425000", "093547.432500", "093549.440000", "093551.447500", "093553.457500", "093555.465000", "093557.472500", "093559.480000", "093601.490000", "093603.497500", "093605.505000", "093607.512500", "093609.520000", "093611.530000", "093613.537500", "093615.545000", "093617.552500", "093619.560000", "093621.570000", "093623.577500", "093625.585000", "093627.592500", "093629.602500", "093631.610000", "093633.617500", "093635.625000", "093637.632500", "093639.642500", "093641.650000", "093643.657500", "093645.665000", "093647.672500", "093649.682500", "093651.690000", "093653.697500", "093655.705000", "093657.712500", "093659.722500", "093701.730000", "093703.737500", "093705.745000", "093707.755000", "093709.762500", "093711.770000", "093713.777500", "093715.785000", "093717.795000", "093719.802500", "093721.810000", "093723.817500", "093725.825000", "093727.835000", "093729.842500", "093731.850000", "093733.857500", "093735.867500", "093737.875000", "093739.882500", "093741.890000", "093743.897500", "093745.907500", "093747.915000", "093749.922500", "093751.930000", "093753.937500", "093755.947500", "093757.955000", "093759.962500", "093801.970000", "093803.980000", "093805.987500", "093807.995000", "093810.002500", "093812.010000", "093814.020000", "093816.027500", "093818.035000", "093820.042500", "093822.050000", "093824.060000", "093826.067500", "093828.075000", "093830.082500", "093832.090000", "093834.100000", "093836.107500", "093838.115000", "093840.122500", "093842.132500", "093844.140000", "093846.147500", "093848.155000", "093850.162500", "093852.172500", "093854.180000", "093856.187500", "093858.195000", "093900.202500", "093902.212500", "093904.220000", "093906.227500", "093908.235000"],
      "ContentTime": ["093430.703000", "093430.703000", "093430.718000", "093430.718000", "093430.718000", "093430.718000", "093430.718000", "093430.734000", "093430.734000", "093430.734000", "093430.734000", "093430.734000", "093430.734000", "093430.750000", "093430.750000", "093430.750000", "093430.750000", "093430.750000", "093430.765000", "093430.765000", "093430.765000", "093430.765000", "093430.765000", "093430.781000", "093510.703000", "093510.703000", "093510.718000", "093510.718000", "093510.718000", "093510.718000", "093510.734000", "093510.734000", "093510.734000", "093510.734000", "093510.734000", "093510.750000", "093510.750000", "093510.750000", "093510.750000", "093510.750000", "093510.750000", "093510.750000", "093510.750000", "093510.765000", "093550.703000", "093550.703000", "093550.703000", "093550.703000", "093550.703000", "093550.718000", "093550.718000", "093550.718000", "093550.718000", "093550.718000", "093550.718000", "093550.718000", "093550.750000", "093550.750000", "093550.750000", "093550.750000", "093550.750000", "093550.750000", "093550.750000", "093550.750000", "093630.703000", "093630.703000", "093630.718000", "093630.718000", "093630.734000", "093630.734000", "093630.734000", "093630.734000", "093630.734000", "093630.734000", "093630.750000", "093630.750000", "093630.750000", "093630.750000", "093630.750000", "093630.750000", "093630.750000", "093630.750000", "093630.765000", "093630.765000", "093710.703000", "093710.703000", "093710.718000", "093710.718000", "093710.718000", "093710.718000", "093710.734000", "093710.734000", "093710.734000", "093710.734000", "093710.734000", "093710.734000", "093710.734000", "093710.734000", "093710.750000", "093710.750000", "093710.750000", "093710.750000", "093710.750000", "093710.750000", "093750.703000", "093750.703000", "093750.718000", "093750.718000", "093750.718000", "093750.718000", "093750.734000", "093750.734000", "093750.734000", "093750.734000", "093750.734000", "093750.734000", "093750.734000", "093750.734000", "093750.750000", "093750.750000", "093750.750000", "093750.750000", "093750.750000", "093750.750000", "093830.703000", "093830.703000", "093830.703000", "093830.703000", "093830.718000", "093830.718000", "093830.718000", "093830.718000", "093830.718000", "093830.734000", "093830.734000", "093830.734000", "093830.734000", "093830.734000", "093830.734000", "093830.750000", "093830.750000", "093830.750000", "093830.750000", "093830.750000", "093908.984000", "093908.984000", "093908.984000", "093909.000000", "093909.000000", "093909.000000", "093909.000000", "093909.000000", "093909.015000", "093909.015000", "093909.015000", "093909.015000", "093909.015000", "093909.015000", "093909.015000", "093909.031000", "093909.031000", "093909.031000", "093909.031000", "093909.031000"],
      "InstanceCreationTime": ["093430.703000", "093430.703000", "093430.718000", "093430.718000", "093430.718000", "093430.718000", "093430.718000", "093430.734000", "093430.734000", "093430.734000", "093430.734000", "093430.734000", "093430.734000", "093430.750000", "093430.750000", "093430.750000", "093430.750000", "093430.750000", "093430.765000", "093430.765000", "093430.765000", "093430.765000", "093430.765000", "093430.781000", "093510.703000", "093510.703000", "093510.718000", "093510.718000", "093510.718000", "093510.718000", "093510.734000", "093510.734000", "093510.734000", "093510.734000", "093510.734000", "093510.750000", "093510.750000", "093510.750000", "093510.750000", "093510.750000", "093510.750000", "093510.750000", "093510.750000", "093510.765000", "093550.703000", "093550.703000", "093550.703000", "093550.703000", "093550.703000", "093550.718000", "093550.718000", "093550.718000", "093550.718000", "093550.718000", "093550.718000", "093550.718000", "093550.750000", "093550.750000", "093550.750000", "093550.750000", "093550.750000", "093550.750000", "093550.750000", "093550.750000", "093630.703000", "093630.703000", "093630.718000", "093630.718000", "093630.734000", "093630.734000", "093630.734000", "093630.734000", "093630.734000", "093630.734000", "093630.750000", "093630.750000", "093630.750000", "093630.750000", "093630.750000", "093630.750000", "093630.750000", "093630.750000", "093630.765000", "093630.765000", "093710.703000", "093710.703000", "093710.718000", "093710.718000", "093710.718000", "093710.718000", "093710.734000", "093710.734000", "093710.734000", "093710.734000", "093710.734000", "093710.734000", "093710.734000", "093710.734000", "093710.750000", "093710.750000", "093710.750000", "093710.750000", "093710.750000", "093710.750000", "093750.703000", "093750.703000", "093750.718000", "093750.718000", "093750.718000", "093750.718000", "093750.734000", "093750.734000", "093750.734000", "093750.734000", "093750.734000", "093750.734000", "093750.734000", "093750.734000", "093750.750000", "093750.750000", "093750.750000", "093750.750000", "093750.750000", "093750.750000", "093830.703000", "093830.703000", "093830.703000", "093830.703000", "093830.718000", "093830.718000", "093830.718000", "093830.718000", "093830.718000", "093830.734000", "093830.734000", "093830.734000", "093830.734000", "093830.734000", "093830.734000", "093830.750000", "093830.750000", "093830.750000", "093830.750000", "093830.750000", "093908.984000", "093908.984000", "093908.984000", "093909.000000", "093909.000000", "093909.000000", "093909.000000", "093909.000000", "093909.015000", "093909.015000", "093909.015000", "093909.015000", "093909.015000", "093909.015000", "093909.015000", "093909.031000", "093909.031000", "093909.031000", "093909.031000", "093909.031000"],
      "InstanceNumber": [1, 2, 3, 4, 5, 6, 7, 8, 9, 10, 11, 12, 13, 14, 15, 16, 17, 18, 19, 20, 21, 22, 23, 24, 25, 26, 27, 28, 29, 30, 31, 32, 33, 34, 35, 36, 37, 38, 39, 40, 41, 42, 43, 44, 45, 46, 47, 48, 49, 50, 51, 52, 53, 54, 55, 56, 57, 58, 59, 60, 61, 62, 63, 64, 65, 66, 67, 68, 69, 70, 71, 72, 73, 74, 75, 76, 77, 78, 79, 80, 81, 82, 83, 84, 85, 86, 87, 88, 89, 90, 91, 92, 93, 94, 95, 96, 97, 98, 99, 100, 101, 102, 103, 104, 105, 106, 107, 108, 109, 110, 111, 112, 113, 114, 115, 116, 117, 118, 119, 120, 121, 122, 123, 124, 125, 126, 127, 128, 129, 130, 131, 132, 133, 134, 135, 136, 137, 138, 139, 140, 141, 142, 143, 144, 145, 146, 147, 148, 149, 150, 151, 152, 153, 154, 155, 156, 157, 158, 159, 160, 161, 162, 163, 164],
      "LargestImagePixelValue": [2083, 1867, 1989, 1796, 1858, 1781, 1793, 2075, 1784, 1800, 2059, 1816, 1852, 1824, 2030, 1823, 1833, 1847, 1832, 1822, 1845, 1885, 1852, 1824, 1842, 1840, 1836, 1825, 1849, 1866, 1860, 1846, 1856, 1865, 1860, 1863, 1863, 1870, 1873, 1846, 1866, 1904, 1840, 1871, 1837, 1804, 1841, 1851, 1823, 1854, 1877, 1897, 1854, 1860, 1882, 1878, 1880, 1990, 1853, 1866, 1959, 1826, 1845, 1816, 1778, 1829, 1830, 1855, 1840, 1895, 1830, 1926, 1883, 1838, 1875, 1849, 1854, 1854, 1952, 1819, 1847, 1974, 1822, 1847, 1815, 1845, 1861, 1841, 1817, 1845, 1897, 1838, 1915, 1808, 1848, 1859, 1892, 1841, 1870, 1868, 1866, 1861, 1867, 1871, 1908, 1887, 1864, 1838, 1978, 1936, 1831, 1849, 1876, 1850, 1868, 1857, 1881, 1859, 1872, 1982, 1864, 1843, 1873, 1855, 1836, 1839, 1844, 2139, 1847, 1891, 1848, 1829, 1886, 1852, 1843, 1830, 1851, 1977, 1810, 1839, 1888, 1825, 1855, 1855, 1929, 2126, 1866, 1883, 1882, 1863, 1860, 1928, 1852, 1907, 1895, 1900, 2016, 1886, 1841, 1823, 1849, 1825, 1870, 1884],
      "WindowCenter": [727.0, 726.0, 729.0, 729.0, 727.0, 726.0, 725.0, 725.0, 724.0, 723.0, 725.0, 726.0, 726.0, 725.0, 726.0, 726.0, 726.0, 726.0, 726.0, 725.0, 726.0, 726.0, 726.0, 725.0, 726.0, 726.0, 726.0, 725.0, 727.0, 727.0, 727.0, 727.0, 726.0, 726.0, 727.0, 727.0, 727.0, 727.0, 727.0, 726.0, 725.0, 725.0, 725.0, 726.0, 724.0, 723.0, 725.0, 725.0, 724.0, 726.0, 726.0, 727.0, 728.0, 729.0, 729.0, 728.0, 727.0, 728.0, 727.0, 726.0, 727.0, 726.0, 725.0, 725.0, 725.0, 725.0, 725.0, 724.0, 725.0, 728.0, 726.0, 725.0, 727.0, 725.0, 726.0, 726.0, 726.0, 727.0, 727.0, 729.0, 729.0, 728.0, 726.0, 725.0, 725.0, 724.0, 726.0, 725.0, 726.0, 727.0, 727.0, 727.0, 727.0, 728.0, 728.0, 728.0, 727.0, 727.0, 727.0, 728.0, 728.0, 729.0, 729.0, 729.0, 730.0, 731.0, 730.0, 727.0, 728.0, 728.0, 729.0, 729.0, 730.0, 730.0, 729.0, 730.0, 731.0, 730.0, 729.0, 730.0, 732.0, 730.0, 730.0, 729.0, 729.0, 729.0, 729.0, 730.0, 729.0, 731.0, 730.0, 730.0, 730.0, 731.0, 730.0, 729.0, 730.0, 729.0, 729.0, 729.0, 730.0, 731.0, 730.0, 729.0, 728.0, 728.0, 729.0, 730.0, 730.0, 730.0, 729.0, 731.0, 732.0, 733.0, 731.0, 728.0, 728.0, 727.0, 727.0, 727.0, 727.0, 727.0, 729.0, 729.0],
      "WindowWidth": [1575.0, 1571.0, 1579.0, 1578.0, 1574.0, 1570.0, 1568.0, 1569.0, 1565.0, 1563.0, 1568.0, 1570.0, 1571.0, 1567.0, 1570.0, 1571.0, 1572.0, 1571.0, 1569.0, 1568.0, 1571.0, 1571.0, 1571.0, 1568.0, 1571.0, 1572.0, 1570.0, 1569.0, 1572.0, 1574.0, 1573.0, 1573.0, 1571.0, 1571.0, 1573.0, 1575.0, 1572.0, 1575.0, 1574.0, 1572.0, 1570.0, 1568.0, 1569.0, 1572.0, 1566.0, 1561.0, 1567.0, 1568.0, 1565.0, 1571.0, 1572.0, 1575.0, 1576.0, 1579.0, 1579.0, 1576.0, 1575.0, 1576.0, 1574.0, 1573.0, 1575.0, 1572.0, 1569.0, 1568.0, 1568.0, 1566.0, 1567.0, 1564.0, 1568.0, 1575.0, 1570.0, 1567.0, 1572.0, 1568.0, 1569.0, 1569.0, 1570.0, 1572.0, 1575.0, 1580.0, 1579.0, 1576.0, 1569.0, 1567.0, 1568.0, 1566.0, 1569.0, 1568.0, 1570.0, 1572.0, 1573.0, 1574.0, 1574.0, 1575.0, 1575.0, 1575.0, 1574.0, 1572.0, 1573.0, 1575.0, 1576.0, 1578.0, 1579.0, 1579.0, 1582.0, 1584.0, 1581.0, 1574.0, 1575.0, 1577.0, 1578.0, 1579.0, 1582.0, 1583.0, 1580.0, 1581.0, 1584.0, 1582.0, 1580.0, 1583.0, 1586.0, 1583.0, 1582.0, 1580.0, 1579.0, 1579.0, 1577.0, 1581.0, 1579.0, 1583.0, 1582.0, 1580.0, 1582.0, 1583.0, 1580.0, 1580.0, 1581.0, 1580.0, 1579.0, 1578.0, 1580.0, 1583.0, 1581.0, 1577.0, 1575.0, 1578.0, 1579.0, 1580.0, 1582.0, 1581.0, 1580.0, 1583.0, 1587.0, 1589.0, 1584.0, 1576.0, 1576.0, 1575.0, 1573.0, 1573.0, 1572.0, 1573.0, 1577.0, 1577.0]
    },
    "slices": {}
  }
}