{
  "AcquisitionMatrixPE": 64,
  "AcquisitionNumber": 1,
  "AcquisitionTime": "09:53:11.945000",
  "BandwidthPerPixelPhaseEncode": 33.967,
  "BaseResolution": 64,
  "CoilCombinationMethod": "Sum of Squares",
  "CoilString": "C:HEA;HEP",
  "ConversionSoftware": "dcm2niix",
  "ConversionSoftwareVersion": "v1.0.20220720",
  "DerivedVendorReportedEchoSpacing": 0.000460005,
  "DeviceSerialNumber": "35193",
  "DwellTime": 3.1e-06,
  "EchoTime": 0.03,
  "EffectiveEchoSpacing": 0.000460005,
  "FlipAngle": 90,
  "HeudiconvVersion": "1.1.6",
  "ImageOrientationPatientDICOM": [0.993498, -0.0122171, -0.113195, 0.0121385, 0.999925, -0.00138301],
  "ImageOrientationText": "Tra>Sag(-6.5)",
  "ImageType": [
    "ORIGINAL",
    "PRIMARY",
    "M",
    "ND",
    "MOSAIC"
],
  "ImagingFrequency": 123.254,
  "InPlanePhaseEncodingDirectionDICOM": "COL",
  "InstitutionAddress": "Xinjiekouwai Street No 19,Beijing,Haidian District,CN,100875",
  "InstitutionName": "BNU MRI Center",
  "InstitutionalDepartmentName": "Department",
  "MRAcquisitionType": "2D",
  "MagneticFieldStrength": 3,
  "Manufacturer": "Siemens",
  "ManufacturersModelName": "TrioTim",
  "MatrixCoilMode": "SENSE",
  "Modality": "MR",
  "NonlinearGradientCorrection": false,
  "PartialFourier": 1,
  "PatientPosition": "HFS",
  "PercentPhaseFOV": 100,
  "PercentSampling": 100,
  "PhaseEncodingDirection": "j-",
  "PhaseEncodingSteps": 64,
  "PhaseResolution": 1,
  "PixelBandwidth": 2520,
  "ProcedureStepDescription": "BNU_cst_2015^Guo.TaoMei",
  "ProtocolName": "ge_func_3x3x4_164",
  "PulseSequenceDetails": "%SiemensSeq%\\ep2d_bold",
  "ReceiveCoilName": "HeadMatrix",
  "ReconMatrixPE": 64,
  "RepetitionTime": 2,
  "SAR": 0.136695,
  "ScanOptions": "FS",
  "ScanningSequence": "EP",
  "SequenceName": "*epfid2d1_64",
  "SequenceVariant": "SK",
  "SeriesDescription": "ge_func_3x3x4_164",
  "SeriesNumber": 5,
  "ShimSetting": [-4537, -19455, -9787, 1156, -84, -105, -124, -1],
  "SliceThickness": 4,
  "SliceTiming": [0, 1.035, 0.0625, 1.095, 0.1225, 1.1575, 0.1825, 1.2175, 0.245, 1.2775, 0.305, 1.34, 0.365, 1.4, 0.4275, 1.46, 0.4875, 1.5225, 0.5475, 1.5825, 0.61, 1.6425, 0.67, 1.705, 0.73, 1.765, 0.7925, 1.825, 0.8525, 1.8875, 0.9125, 1.9475, 0.975],
  "SoftwareVersions": "syngo MR B17",
  "SpacingBetweenSlices": 4.6,
  "StationName": "MRC35193",
  "TaskName": "CognitiveControl",
  "TotalReadoutTime": 0.0289803,
  "TxRefAmp": 315.009,
  "dcmmeta_affine": [
    [-3.104680299758911, 0.03793288767337799, -0.5207347869873047, 106.50560760498047],
    [0.038178302347660065, 3.1247668266296387, 5.381488143996194e-09, -92.69188690185547],
    [-0.3537336587905884, 0.0043219029903411865, 4.570430278778076, -36.977535247802734],
    [0.0, 0.0, 0.0, 1.0]
],
  "dcmmeta_reorient_transform": [
    [0.0, -1.0, 0.0, 63.0],
    [1.0, 0.0, 0.0, 0.0],
    [0.0, 0.0, 1.0, 0.0],
    [0.0, 0.0, 0.0, 1.0]
],
  "dcmmeta_shape": [64, 64, 33, 164],
  "dcmmeta_slice_dim": 2,
  "dcmmeta_version": 0.6,
  "global": {
    "const": {
      "AcquisitionMatrix": [64, 0, 0, 64],
      "AngioFlag": "N",
      "BitsAllocated": 16,
      "BitsStored": 12,
      "Columns": 384,
      "EchoNumbers": 1,
      "EchoTime": 30.0,
      "EchoTrainLength": 1,
      "FlipAngle": 90.0,
      "HighBit": 11,
      "ImageOrientationPatient": [0.99349770391567, -0.0122170566883, -0.1131947694912, 0.01213852381133, 0.99992536897804, -0.0013830089687],
      "ImagePositionPatient": [-611.713493228, -598.0225775342, 20.583634544218],
      "ImageType": [
        "ORIGINAL",
        "PRIMARY",
        "M",
        "ND",
        "MOSAIC"
],
      "ImagedNucleus": "1H",
      "ImagingFrequency": 123.253607,
      "InPlanePhaseEncodingDirection": "COL",
      "MRAcquisitionType": "2D",
      "MagneticFieldStrength": 3.0,
      "Manufacturer": "SIEMENS",
      "ManufacturerModelName": "TrioTim",
      "Modality": "MR",
      "NumberOfAverages": 1.0,
      "NumberOfPhaseEncodingSteps": 64,
      "PercentPhaseFieldOfView": 100.0,
      "PercentSampling": 100.0,
      "PerformedProcedureStepStartTime": "093134.953000",
      "PhotometricInterpretation": "MONOCHROME2",
      "PixelBandwidth": 2520.0,
      "PixelRepresentation": 0,
      "PixelSpacing": [3.125, 3.125],
      "ProtocolName": "ge_func_3x3x4_164",
      "RepetitionTime": 2000.0,
      "Rows": 384,
      "SAR": 0.13669492746282,
      "SamplesPerPixel": 1,
      "ScanOptions": "FS",
      "ScanningSequence": "EP",
      "SequenceName": "*epfid2d1_64",
      "SequenceVariant": "SK",
      "SeriesDescription": "ge_func_3x3x4_164",
      "SeriesNumber": 5,
      "SeriesTime": "095410.703000",
      "SliceLocation": -48.796615235672,
      "SliceThickness": 4.0,
      "SmallestImagePixelValue": 0,
      "SoftwareVersions": "syngo MR B17",
      "SpacingBetweenSlices": 4.5999999816197,
      "SpecificCharacterSet": "ISO_IR 100",
      "StudyID": "1",
      "StudyTime": "093134.875000",
      "TransmitCoilName": "Body",
      "VariableFlipAngleFlag": "N",
      "WindowCenterWidthExplanation": "Algo1",
      "dBdt": 0.0},
    "slices": {}
  },
  "time": {
    "samples": {
      "AcquisitionNumber": [1, 2, 3, 4, 5, 6, 7, 8, 9, 10, 11, 12, 13, 14, 15, 16, 17, 18, 19, 20, 21, 22, 23, 24, 25, 26, 27, 28, 29, 30, 31, 32, 33, 34, 35, 36, 37, 38, 39, 40, 41, 42, 43, 44, 45, 46, 47, 48, 49, 50, 51, 52, 53, 54, 55, 56, 57, 58, 59, 60, 61, 62, 63, 64, 65, 66, 67, 68, 69, 70, 71, 72, 73, 74, 75, 76, 77, 78, 79, 80, 81, 82, 83, 84, 85, 86, 87, 88, 89, 90, 91, 92, 93, 94, 95, 96, 97, 98, 99, 100, 101, 102, 103, 104, 105, 106, 107, 108, 109, 110, 111, 112, 113, 114, 115, 116, 117, 118, 119, 120, 121, 122, 123, 124, 125, 126, 127, 128, 129, 130, 131, 132, 133, 134, 135, 136, 137, 138, 139, 140, 141, 142, 143, 144, 145, 146, 147, 148, 149, 150, 151, 152, 153, 154, 155, 156, 157, 158, 159, 160, 161, 162, 163, 164],
      "AcquisitionTime": ["095311.945000", "095313.955000", "095315.962500", "095317.970000", "095319.977500", "095321.985000", "095323.995000", "095326.002500", "095328.010000", "095330.017500", "095332.027500", "095334.035000", "095336.042500", "095338.050000", "095340.057500", "095342.067500", "095344.075000", "095346.082500", "095348.090000", "095350.097500", "095352.107500", "095354.115000", "095356.122500", "095358.130000", "095400.140000", "095402.147500", "095404.155000", "095406.162500", "095408.170000", "095410.180000", "095412.187500", "095414.195000", "095416.202500", "095418.210000", "095420.220000", "095422.227500", "095424.235000", "095426.242500", "095428.252500", "095430.260000", "095432.267500", "095434.275000", "095436.282500", "095438.292500", "095440.300000", "095442.307500", "095444.315000", "095446.322500", "095448.332500", "095450.340000", "095452.347500", "095454.355000", "095456.362500", "095458.372500", "095500.380000", "095502.387500", "095504.395000", "095506.405000", "095508.412500", "095510.420000", "095512.427500", "095514.435000", "095516.445000", "095518.452500", "095520.460000", "095522.467500", "095524.475000", "095526.485000", "095528.492500", "095530.500000", "095532.507500", "095534.517500", "095536.525000", "095538.532500", "095540.540000", "095542.547500", "095544.557500", "095546.565000", "095548.572500", "095550.580000", "095552.587500", "095554.597500", "095556.605000", "095558.612500", "095600.620000", "095602.630000", "095604.637500", "095606.645000", "095608.652500", "095610.660000", "095612.670000", "095614.677500", "095616.685000", "095618.692500", "095620.700000", "095622.710000", "095624.717500", "095626.725000", "095628.732500", "095630.742500", "095632.750000", "095634.757500", "095636.765000", "095638.772500", "095640.782500", "095642.790000", "095644.797500", "095646.805000", "095648.812500", "095650.822500", "095652.830000", "095654.837500", "095656.845000", "095658.852500", "095700.862500", "095702.870000", "095704.877500", "095706.885000", "095708.895000", "095710.902500", "095712.910000", "095714.917500", "095716.925000", "095718.935000", "095720.942500", "095722.950000", "095724.957500", "095726.965000", "095728.975000", "095730.982500", "095732.990000", "095734.997500", "095737.007500", "095739.015000", "095741.022500", "095743.030000", "095745.037500", "095747.047500", "095749.055000", "095751.062500", "095753.070000", "095755.077500", "095757.087500", "095759.095000", "095801.102500", "095803.110000", "095805.120000", "095807.127500", "095809.135000", "095811.142500", "095813.150000", "095815.160000", "095817.167500", "095819.175000", "095821.182500", "095823.190000", "095825.200000", "095827.207500", "095829.215000", "095831.222500", "095833.230000", "095835.240000", "095837.247500", "095839.255000"],
      "ContentTime": ["095410.703000", "095410.718000", "095410.718000", "095410.718000", "095410.734000", "095410.734000", "095410.734000", "095410.734000", "095410.734000", "095410.734000", "095410.734000", "095410.750000", "095410.750000", "095410.750000", "095410.750000", "095410.750000", "095410.765000", "095410.765000", "095410.765000", "095410.781000", "095410.781000", "095410.781000", "095410.781000", "095410.781000", "095410.781000", "095410.781000", "095410.781000", "095410.796000", "095430.703000", "095430.703000", "095430.703000", "095430.703000", "095430.718000", "095430.718000", "095430.718000", "095430.718000", "095430.718000", "095430.718000", "095510.703000", "095510.703000", "095510.703000", "095510.718000", "095510.718000", "095510.718000", "095510.734000", "095510.750000", "095510.750000", "095510.750000", "095510.750000", "095510.750000", "095510.765000", "095510.765000", "095510.765000", "095510.765000", "095510.765000", "095510.765000", "095510.765000", "095510.765000", "095550.703000", "095550.718000", "095550.718000", "095550.718000", "095550.718000", "095550.718000", "095550.734000", "095550.734000", "095550.734000", "095550.734000", "095550.734000", "095550.734000", "095550.734000", "095550.734000", "095550.750000", "095550.750000", "095550.750000", "095550.750000", "095550.750000", "095550.750000", "095630.703000", "095630.703000", "095630.703000", "095630.718000", "095630.718000", "095630.750000", "095630.750000", "095630.750000", "095630.750000", "095630.765000", "095630.765000", "095630.765000", "095630.765000", "095630.765000", "095630.765000", "095630.765000", "095630.781000", "095630.781000", "095630.781000", "095630.781000", "095710.703000", "095710.703000", "095710.703000", "095710.703000", "095710.703000", "095710.718000", "095710.718000", "095710.718000", "095710.718000", "095710.718000", "095710.718000", "095710.718000", "095710.734000", "095710.734000", "095710.734000", "095710.734000", "095710.734000", "095710.734000", "095710.734000", "095710.750000", "095750.703000", "095750.703000", "095750.703000", "095750.703000", "095750.718000", "095750.718000", "095750.718000", "095750.718000", "095750.718000", "095750.718000", "095750.734000", "095750.734000", "095750.750000", "095750.750000", "095750.750000", "095750.750000", "095750.750000", "095750.750000", "095750.750000", "095750.765000", "095830.703000", "095830.703000", "095830.703000", "095830.703000", "095830.718000", "095830.718000", "095830.718000", "095830.718000", "095830.718000", "095830.718000", "095830.718000", "095830.718000", "095830.734000", "095830.734000", "095830.734000", "095830.734000", "095830.734000", "095830.734000", "095830.734000", "095830.734000", "095840.703000", "095840.703000", "095840.703000", "095840.703000", "095840.703000", "095840.718000"],
      "InstanceCreationTime": ["095410.703000", "095410.718000", "095410.718000", "095410.718000", "095410.734000", "095410.734000", "095410.734000", "095410.734000", "095410.734000", "095410.734000", "095410.734000", "095410.750000", "095410.750000", "095410.750000", "095410.750000", "095410.750000", "095410.765000", "095410.765000", "095410.765000", "095410.781000", "095410.781000", "095410.781000", "095410.781000", "095410.781000", "095410.781000", "095410.781000", "095410.781000", "095410.796000", "095430.703000", "095430.703000", "095430.703000", "095430.703000", "095430.718000", "095430.718000", "095430.718000", "095430.718000", "095430.718000", "095430.718000", "095510.703000", "095510.703000", "095510.703000", "095510.718000", "095510.718000", "095510.718000", "095510.734000", "095510.750000", "095510.750000", "095510.750000", "095510.750000", "095510.750000", "095510.765000", "095510.765000", "095510.765000", "095510.765000", "095510.765000", "095510.765000", "095510.765000", "095510.765000", "095550.703000", "095550.718000", "095550.718000", "095550.718000", "095550.718000", "095550.718000", "095550.734000", "095550.734000", "095550.734000", "095550.734000", "095550.734000", "095550.734000", "095550.734000", "095550.734000", "095550.750000", "095550.750000", "095550.750000", "095550.750000", "095550.750000", "095550.750000", "095630.703000", "095630.703000", "095630.703000", "095630.718000", "095630.718000", "095630.750000", "095630.750000", "095630.750000", "095630.750000", "095630.765000", "095630.765000", "095630.765000", "095630.765000", "095630.765000", "095630.765000", "095630.765000", "095630.781000", "095630.781000", "095630.781000", "095630.781000", "095710.703000", "095710.703000", "095710.703000", "095710.703000", "095710.703000", "095710.718000", "095710.718000", "095710.718000", "095710.718000", "095710.718000", "095710.718000", "095710.718000", "095710.734000", "095710.734000", "095710.734000", "095710.734000", "095710.734000", "095710.734000", "095710.734000", "095710.750000", "095750.703000", "095750.703000", "095750.703000", "095750.703000", "095750.718000", "095750.718000", "095750.718000", "095750.718000", "095750.718000", "095750.718000", "095750.734000", "095750.734000", "095750.750000", "095750.750000", "095750.750000", "095750.750000", "095750.750000", "095750.750000", "095750.750000", "095750.765000", "095830.703000", "095830.703000", "095830.703000", "095830.703000", "095830.718000", "095830.718000", "095830.718000", "095830.718000", "095830.718000", "095830.718000", "095830.718000", "095830.718000", "095830.734000", "095830.734000", "095830.734000", "095830.734000", "095830.734000", "095830.734000", "095830.734000", "095830.734000", "095840.703000", "095840.703000", "095840.703000", "095840.703000", "095840.703000", "095840.718000"],
      "InstanceNumber": [1, 2, 3, 4, 5, 6, 7, 8, 9, 10, 11, 12, 13, 14, 15, 16, 17, 18, 19, 20, 21, 22, 23, 24, 25, 26, 27, 28, 29, 30, 31, 32, 33, 34, 35, 36, 37, 38, 39, 40, 41, 42, 43, 44, 45, 46, 47, 48, 49, 50, 51, 52, 53, 54, 55, 56, 57, 58, 59, 60, 61, 62, 63, 64, 65, 66, 67, 68, 69, 70, 71, 72, 73, 74, 75, 76, 77, 78, 79, 80, 81, 82, 83, 84, 85, 86, 87, 88, 89, 90, 91, 92, 93, 94, 95, 96, 97, 98, 99, 100, 101, 102, 103, 104, 105, 106, 107, 108, 109, 110, 111, 112, 113, 114, 115, 116, 117, 118, 119, 120, 121, 122, 123, 124, 125, 126, 127, 128, 129, 130, 131, 132, 133, 134, 135, 136, 137, 138, 139, 140, 141, 142, 143, 144, 145, 146, 147, 148, 149, 150, 151, 152, 153, 154, 155, 156, 157, 158, 159, 160, 161, 162, 163, 164],
      "LargestImagePixelValue": [1972, 2062, 1872, 1867, 1862, 1856, 1936, 1863, 1842, 1837, 1836, 1844, 1850, 1835, 1850, 1840, 1846, 1845, 1825, 1837, 1835, 1862, 1834, 1846, 1835, 1840, 1831, 1852, 1861, 1846, 1872, 1860, 1847, 1835, 1838, 1842, 1839, 1845, 1830, 1818, 1827, 1821, 1830, 1826, 1827, 1833, 1855, 2164, 1823, 1808, 1820, 1837, 1838, 1837, 1814, 1807, 1813, 1835, 1820, 1811, 1815, 1807, 1796, 1786, 1809, 1801, 1795, 1783, 1961, 1781, 1776, 1775, 1770, 1757, 1751, 1758, 1754, 1756, 1757, 1824, 1741, 1754, 1759, 1747, 1726, 1755, 1752, 1754, 1744, 1744, 1752, 1755, 1736, 1750, 1761, 1743, 1742, 1753, 1719, 1745, 1753, 1747, 1994, 1732, 1750, 1758, 1745, 1720, 1730, 1745, 1753, 1749, 1760, 1761, 1750, 1744, 1782, 1771, 1741, 1772, 1766, 1765, 1762, 1755, 1738, 1756, 1760, 1756, 1772, 1749, 1753, 1769, 1747, 1777, 1753, 1762, 1778, 1740, 1767, 1741, 1745, 1774, 1757, 1761, 1774, 1758, 1785, 1772, 1765, 1776, 1994, 1777, 1779, 1791, 1769, 1778, 1783, 1777, 1779, 1800, 1766, 1785, 1794, 1782],
      "WindowCenter": [733.0, 731.0, 732.0, 731.0, 731.0, 729.0, 730.0, 730.0, 729.0, 729.0, 728.0, 728.0, 729.0, 729.0, 729.0, 729.0, 729.0, 729.0, 727.0, 728.0, 728.0, 730.0, 729.0, 728.0, 728.0, 728.0, 728.0, 729.0, 729.0, 729.0, 730.0, 731.0, 731.0, 730.0, 729.0, 729.0, 731.0, 731.0, 729.0, 729.0, 729.0, 730.0, 730.0, 729.0, 729.0, 730.0, 731.0, 733.0, 730.0, 728.0, 728.0, 731.0, 732.0, 732.0, 732.0, 732.0, 732.0, 733.0, 733.0, 733.0, 733.0, 733.0, 732.0, 732.0, 733.0, 733.0, 732.0, 731.0, 731.0, 729.0, 730.0, 730.0, 730.0, 730.0, 730.0, 731.0, 731.0, 731.0, 730.0, 730.0, 730.0, 731.0, 732.0, 730.0, 730.0, 731.0, 731.0, 730.0, 730.0, 729.0, 730.0, 730.0, 730.0, 730.0, 730.0, 731.0, 730.0, 730.0, 729.0, 731.0, 731.0, 730.0, 730.0, 729.0, 731.0, 732.0, 731.0, 730.0, 730.0, 731.0, 731.0, 730.0, 731.0, 731.0, 731.0, 731.0, 732.0, 732.0, 731.0, 732.0, 731.0, 731.0, 731.0, 731.0, 731.0, 731.0, 731.0, 730.0, 730.0, 730.0, 730.0, 731.0, 731.0, 731.0, 730.0, 730.0, 730.0, 730.0, 730.0, 730.0, 730.0, 731.0, 730.0, 729.0, 729.0, 730.0, 730.0, 730.0, 731.0, 731.0, 731.0, 730.0, 730.0, 731.0, 730.0, 730.0, 730.0, 730.0, 731.0, 731.0, 730.0, 730.0, 731.0, 731.0],
      "WindowWidth": [1589.0, 1585.0, 1585.0, 1584.0, 1582.0, 1578.0, 1580.0, 1579.0, 1579.0, 1577.0, 1575.0, 1575.0, 1577.0, 1578.0, 1579.0, 1579.0, 1578.0, 1577.0, 1573.0, 1574.0, 1577.0, 1580.0, 1579.0, 1576.0, 1574.0, 1575.0, 1576.0, 1577.0, 1579.0, 1578.0, 1581.0, 1583.0, 1583.0, 1580.0, 1577.0, 1579.0, 1583.0, 1584.0, 1579.0, 1578.0, 1578.0, 1581.0, 1580.0, 1577.0, 1578.0, 1581.0, 1583.0, 1588.0, 1579.0, 1576.0, 1576.0, 1583.0, 1587.0, 1587.0, 1587.0, 1587.0, 1587.0, 1587.0, 1588.0, 1589.0, 1588.0, 1589.0, 1585.0, 1586.0, 1588.0, 1590.0, 1587.0, 1582.0, 1583.0, 1578.0, 1580.0, 1582.0, 1582.0, 1579.0, 1580.0, 1584.0, 1585.0, 1583.0, 1581.0, 1581.0, 1580.0, 1584.0, 1585.0, 1581.0, 1580.0, 1583.0, 1585.0, 1582.0, 1580.0, 1579.0, 1582.0, 1582.0, 1580.0, 1580.0, 1581.0, 1582.0, 1582.0, 1581.0, 1579.0, 1582.0, 1582.0, 1579.0, 1581.0, 1578.0, 1583.0, 1585.0, 1583.0, 1581.0, 1581.0, 1583.0, 1582.0, 1582.0, 1584.0, 1584.0, 1582.0, 1583.0, 1586.0, 1586.0, 1585.0, 1586.0, 1585.0, 1584.0, 1584.0, 1584.0, 1583.0, 1583.0, 1582.0, 1581.0, 1581.0, 1581.0, 1582.0, 1583.0, 1582.0, 1583.0, 1580.0, 1580.0, 1581.0, 1580.0, 1580.0, 1579.0, 1582.0, 1583.0, 1581.0, 1578.0, 1579.0, 1580.0, 1581.0, 1580.0, 1582.0, 1582.0, 1583.0, 1579.0, 1581.0, 1583.0, 1581.0, 1582.0, 1580.0, 1581.0, 1582.0, 1583.0, 1581.0, 1582.0, 1584.0, 1584.0]
    },
    "slices": {}
  }
}