{
  "AcquisitionMatrixPE": 64,
  "AcquisitionNumber": 1,
  "AcquisitionTime": "09:34:46.490000",
  "BandwidthPerPixelPhaseEncode": 33.967,
  "BaseResolution": 64,
  "CoilCombinationMethod": "Sum of Squares",
  "CoilString": "C:HEA;HEP",
  "ConversionSoftware": "dcm2niix",
  "ConversionSoftwareVersion": "v1.0.20220720",
  "DerivedVendorReportedEchoSpacing": 0.000460005,
  "DeviceSerialNumber": "35193",
  "DwellTime": 3.1e-06,
  "EchoTime": 0.03,
  "EffectiveEchoSpacing": 0.000460005,
  "FlipAngle": 90,
  "HeudiconvVersion": "1.1.6",
  "ImageOrientationPatientDICOM": [0.9988, -0.00349063, -0.0488495, 0.00348646, 0.999994, -0.000170517],
  "ImageOrientationText": "Tra>Sag(-2.8)",
  "ImageType": [
    "ORIGINAL",
    "PRIMARY",
    "M",
    "ND",
    "MOSAIC"
],
  "ImagingFrequency": 123.254,
  "InPlanePhaseEncodingDirectionDICOM": "COL",
  "InstitutionAddress": "Xinjiekouwai Street No 19,Beijing,Haidian District,CN,100875",
  "InstitutionName": "BNU MRI Center",
  "InstitutionalDepartmentName": "Department",
  "MRAcquisitionType": "2D",
  "MagneticFieldStrength": 3,
  "Manufacturer": "Siemens",
  "ManufacturersModelName": "TrioTim",
  "MatrixCoilMode": "SENSE",
  "Modality": "MR",
  "NonlinearGradientCorrection": false,
  "PartialFourier": 1,
  "PatientPosition": "HFS",
  "PercentPhaseFOV": 100,
  "PercentSampling": 100,
  "PhaseEncodingDirection": "j-",
  "PhaseEncodingSteps": 64,
  "PhaseResolution": 1,
  "PixelBandwidth": 2520,
  "ProcedureStepDescription": "BNU_cst_2015^Guo.TaoMei",
  "ProtocolName": "ge_func_3x3x4_164",
  "PulseSequenceDetails": "%SiemensSeq%\\ep2d_bold",
  "ReceiveCoilName": "HeadMatrix",
  "ReconMatrixPE": 64,
  "RepetitionTime": 2,
  "SAR": 0.135198,
  "ScanOptions": "FS",
  "ScanningSequence": "EP",
  "SequenceName": "*epfid2d1_64",
  "SequenceVariant": "SK",
  "SeriesDescription": "ge_func_3x3x4_164",
  "SeriesNumber": 5,
  "ShimSetting": [-4536, -19396, -9849, 1082, -155, -432, -16, 30],
  "SliceThickness": 4,
  "SliceTiming": [0, 1.0325, 0.06, 1.095, 0.12, 1.155, 0.1825, 1.215, 0.2425, 1.2775, 0.3025, 1.3375, 0.365, 1.3975, 0.425, 1.46, 0.485, 1.52, 0.5475, 1.58, 0.6075, 1.6425, 0.6675, 1.7025, 0.73, 1.7625, 0.79, 1.825, 0.85, 1.885, 0.9125, 1.945, 0.9725],
  "SoftwareVersions": "syngo MR B17",
  "SpacingBetweenSlices": 4.6,
  "StationName": "MRC35193",
  "TaskName": "LanguageControl",
  "TotalReadoutTime": 0.0289803,
  "TxRefAmp": 352.983,
  "dcmmeta_affine": [
    [-3.1212501525878906, 0.01089518703520298, -0.2247089296579361, 101.1135025024414],
    [0.010908209718763828, 3.124980926513672, -1.8182044758674465e-09, -83.72949981689453],
    [-0.15265460312366486, 0.0005328647675924003, 4.594508171081543, -63.24611282348633],
    [0.0, 0.0, 0.0, 1.0]
],
  "dcmmeta_reorient_transform": [
    [0.0, -1.0, 0.0, 63.0],
    [1.0, 0.0, 0.0, 0.0],
    [0.0, 0.0, 1.0, 0.0],
    [0.0, 0.0, 0.0, 1.0]
],
  "dcmmeta_shape": [64, 64, 33, 164],
  "dcmmeta_slice_dim": 2,
  "dcmmeta_version": 0.6,
  "global": {
    "const": {
      "AcquisitionMatrix": [64, 0, 0, 64],
      "AngioFlag": "N",
      "BitsAllocated": 16,
      "BitsStored": 12,
      "Columns": 384,
      "EchoNumbers": 1,
      "EchoTime": 30.0,
      "EchoTrainLength": 1,
      "FlipAngle": 90.0,
      "HighBit": 11,
      "ImageOrientationPatient": [0.99880005240007, -0.0034906271015, -0.0488494713182, 0.00348645975301, 0.99999390774266, -0.0001705167221],
      "ImagePositionPatient": [-602.94315391584, -611.39594402403, -38.702547275931],
      "ImageType": [
        "ORIGINAL",
        "PRIMARY",
        "M",
        "ND",
        "MOSAIC"
],
      "ImagedNucleus": "1H",
      "ImagingFrequency": 123.253814,
      "InPlanePhaseEncodingDirection": "COL",
      "MRAcquisitionType": "2D",
      "MagneticFieldStrength": 3.0,
      "Manufacturer": "SIEMENS",
      "ManufacturerModelName": "TrioTim",
      "Modality": "MR",
      "NumberOfAverages": 1.0,
      "NumberOfPhaseEncodingSteps": 64,
      "PercentPhaseFieldOfView": 100.0,
      "PercentSampling": 100.0,
      "PerformedProcedureStepStartTime": "091305.234000",
      "PhotometricInterpretation": "MONOCHROME2",
      "PixelBandwidth": 2520.0,
      "PixelRepresentation": 0,
      "PixelSpacing": [3.125, 3.125],
      "ProtocolName": "ge_func_3x3x4_164",
      "RepetitionTime": 2000.0,
      "Rows": 384,
      "SAR": 0.13519816661726,
      "SamplesPerPixel": 1,
      "ScanOptions": "FS",
      "ScanningSequence": "EP",
      "SequenceName": "*epfid2d1_64",
      "SequenceVariant": "SK",
      "SeriesDescription": "ge_func_3x3x4_164",
      "SeriesNumber": 5,
      "SeriesTime": "093536.515000",
      "SliceLocation": -68.109975736907,
      "SliceThickness": 4.0,
      "SmallestImagePixelValue": 0,
      "SoftwareVersions": "syngo MR B17",
      "SpacingBetweenSlices": 4.5999999395543,
      "SpecificCharacterSet": "ISO_IR 100",
      "StudyID": "1",
      "StudyTime": "091304.468000",
      "TransmitCoilName": "Body",
      "VariableFlipAngleFlag": "N",
      "WindowCenterWidthExplanation": "Algo1",
      "dBdt": 0.0},
    "slices": {}
  },
  "time": {
    "samples": {
      "AcquisitionNumber": [1, 2, 3, 4, 5, 6, 7, 8, 9, 10, 11, 12, 13, 14, 15, 16, 17, 18, 19, 20, 21, 22, 23, 24, 25, 26, 27, 28, 29, 30, 31, 32, 33, 34, 35, 36, 37, 38, 39, 40, 41, 42, 43, 44, 45, 46, 47, 48, 49, 50, 51, 52, 53, 54, 55, 56, 57, 58, 59, 60, 61, 62, 63, 64, 65, 66, 67, 68, 69, 70, 71, 72, 73, 74, 75, 76, 77, 78, 79, 80, 81, 82, 83, 84, 85, 86, 87, 88, 89, 90, 91, 92, 93, 94, 95, 96, 97, 98, 99, 100, 101, 102, 103, 104, 105, 106, 107, 108, 109, 110, 111, 112, 113, 114, 115, 116, 117, 118, 119, 120, 121, 122, 123, 124, 125, 126, 127, 128, 129, 130, 131, 132, 133, 134, 135, 136, 137, 138, 139, 140, 141, 142, 143, 144, 145, 146, 147, 148, 149, 150, 151, 152, 153, 154, 155, 156, 157, 158, 159, 160, 161, 162, 163, 164],
      "AcquisitionTime": ["093446.490000", "093448.497500", "093450.505000", "093452.512500", "093454.522500", "093456.530000", "093458.537500", "093500.545000", "093502.552500", "093504.562500", "093506.570000", "093508.577500", "093510.585000", "093512.592500", "093514.602500", "093516.610000", "093518.617500", "093520.625000", "093522.635000", "093524.642500", "093526.650000", "093528.657500", "093530.665000", "093532.675000", "093534.682500", "093536.690000", "093538.697500", "093540.705000", "093542.715000", "093544.722500", "093546.730000", "093548.737500", "093550.747500", "093552.755000", "093554.762500", "093556.770000", "093558.777500", "093600.787500", "093602.795000", "093604.802500", "093606.810000", "093608.817500", "093610.827500", "093612.835000", "093614.842500", "093616.850000", "093618.860000", "093620.867500", "093622.875000", "093624.882500", "093626.890000", "093628.900000", "093630.907500", "093632.915000", "093634.922500", "093636.930000", "093638.940000", "093640.947500", "093642.955000", "093644.962500", "093646.970000", "093648.980000", "093650.987500", "093652.995000", "093655.002500", "093657.012500", "093659.020000", "093701.027500", "093703.035000", "093705.042500", "093707.052500", "093709.060000", "093711.067500", "093713.075000", "093715.082500", "093717.092500", "093719.100000", "093721.107500", "093723.115000", "093725.125000", "093727.132500", "093729.140000", "093731.147500", "093733.155000", "093735.165000", "093737.172500", "093739.180000", "093741.187500", "093743.195000", "093745.205000", "093747.212500", "093749.220000", "093751.227500", "093753.237500", "093755.245000", "093757.252500", "093759.260000", "093801.267500", "093803.277500", "093805.285000", "093807.292500", "093809.300000", "093811.307500", "093813.317500", "093815.325000", "093817.332500", "093819.340000", "093821.347500", "093823.357500", "093825.365000", "093827.372500", "093829.380000", "093831.390000", "093833.397500", "093835.405000", "093837.412500", "093839.420000", "093841.430000", "093843.437500", "093845.445000", "093847.452500", "093849.460000", "093851.470000", "093853.477500", "093855.485000", "093857.492500", "093859.502500", "093901.510000", "093903.517500", "093905.525000", "093907.532500", "093909.542500", "093911.550000", "093913.557500", "093915.565000", "093917.572500", "093919.582500", "093921.590000", "093923.597500", "093925.605000", "093927.615000", "093929.622500", "093931.630000", "093933.637500", "093935.645000", "093937.655000", "093939.662500", "093941.670000", "093943.677500", "093945.685000", "093947.695000", "093949.702500", "093951.710000", "093953.717500", "093955.725000", "093957.735000", "093959.742500", "094001.750000", "094003.757500", "094005.767500", "094007.775000", "094009.782500", "094011.790000", "094013.797500"],
      "ContentTime": ["093536.515000", "093536.515000", "093536.515000", "093536.531000", "093536.531000", "093536.531000", "093536.531000", "093536.531000", "093536.531000", "093536.531000", "093536.531000", "093536.531000", "093536.546000", "093536.546000", "093536.546000", "093536.546000", "093536.546000", "093536.546000", "093536.546000", "093536.546000", "093536.562000", "093536.562000", "093536.562000", "093536.562000", "093556.515000", "093556.515000", "093556.515000", "093556.515000", "093556.515000", "093556.515000", "093556.531000", "093556.531000", "093556.531000", "093556.531000", "093636.515000", "093636.515000", "093636.515000", "093636.515000", "093636.515000", "093636.515000", "093636.515000", "093636.531000", "093636.531000", "093636.531000", "093636.531000", "093636.531000", "093636.531000", "093636.531000", "093636.531000", "093636.531000", "093636.546000", "093636.546000", "093636.546000", "093636.546000", "093716.515000", "093716.515000", "093716.515000", "093716.515000", "093716.531000", "093716.531000", "093716.531000", "093716.531000", "093716.546000", "093716.546000", "093716.546000", "093716.546000", "093716.546000", "093716.546000", "093716.546000", "093716.546000", "093716.562000", "093716.562000", "093716.562000", "093716.562000", "093756.515000", "093756.515000", "093756.515000", "093756.515000", "093756.515000", "093756.531000", "093756.531000", "093756.531000", "093756.531000", "093756.531000", "093756.531000", "093756.531000", "093756.531000", "093756.546000", "093756.546000", "093756.546000", "093756.546000", "093756.546000", "093756.546000", "093756.562000", "093836.515000", "093836.515000", "093836.515000", "093836.515000", "093836.515000", "093836.531000", "093836.531000", "093836.531000", "093836.531000", "093836.531000", "093836.531000", "093836.531000", "093836.546000", "093836.546000", "093836.546000", "093836.546000", "093836.546000", "093836.546000", "093836.562000", "093836.562000", "093916.515000", "093916.515000", "093916.515000", "093916.515000", "093916.515000", "093916.515000", "093916.531000", "093916.531000", "093916.531000", "093916.531000", "093916.531000", "093916.531000", "093916.531000", "093916.546000", "093916.546000", "093916.546000", "093916.546000", "093916.546000", "093916.546000", "093916.546000", "093956.515000", "093956.515000", "093956.515000", "093956.515000", "093956.531000", "093956.531000", "093956.531000", "093956.531000", "093956.531000", "093956.531000", "093956.531000", "093956.531000", "093956.546000", "093956.546000", "093956.546000", "093956.546000", "093956.546000", "093956.546000", "093956.546000", "093956.546000", "094015.187000", "094015.187000", "094015.187000", "094015.187000", "094015.187000", "094015.203000", "094015.203000", "094015.203000", "094015.203000", "094015.203000"],
      "InstanceCreationTime": ["093536.515000", "093536.515000", "093536.515000", "093536.531000", "093536.531000", "093536.531000", "093536.531000", "093536.531000", "093536.531000", "093536.531000", "093536.531000", "093536.531000", "093536.546000", "093536.546000", "093536.546000", "093536.546000", "093536.546000", "093536.546000", "093536.546000", "093536.546000", "093536.562000", "093536.562000", "093536.562000", "093536.562000", "093556.515000", "093556.515000", "093556.515000", "093556.515000", "093556.515000", "093556.515000", "093556.531000", "093556.531000", "093556.531000", "093556.531000", "093636.515000", "093636.515000", "093636.515000", "093636.515000", "093636.515000", "093636.515000", "093636.515000", "093636.531000", "093636.531000", "093636.531000", "093636.531000", "093636.531000", "093636.531000", "093636.531000", "093636.531000", "093636.531000", "093636.546000", "093636.546000", "093636.546000", "093636.546000", "093716.515000", "093716.515000", "093716.515000", "093716.515000", "093716.531000", "093716.531000", "093716.531000", "093716.531000", "093716.546000", "093716.546000", "093716.546000", "093716.546000", "093716.546000", "093716.546000", "093716.546000", "093716.546000", "093716.562000", "093716.562000", "093716.562000", "093716.562000", "093756.515000", "093756.515000", "093756.515000", "093756.515000", "093756.515000", "093756.531000", "093756.531000", "093756.531000", "093756.531000", "093756.531000", "093756.531000", "093756.531000", "093756.531000", "093756.546000", "093756.546000", "093756.546000", "093756.546000", "093756.546000", "093756.546000", "093756.562000", "093836.515000", "093836.515000", "093836.515000", "093836.515000", "093836.515000", "093836.531000", "093836.531000", "093836.531000", "093836.531000", "093836.531000", "093836.531000", "093836.531000", "093836.546000", "093836.546000", "093836.546000", "093836.546000", "093836.546000", "093836.546000", "093836.562000", "093836.562000", "093916.515000", "093916.515000", "093916.515000", "093916.515000", "093916.515000", "093916.515000", "093916.531000", "093916.531000", "093916.531000", "093916.531000", "093916.531000", "093916.531000", "093916.531000", "093916.546000", "093916.546000", "093916.546000", "093916.546000", "093916.546000", "093916.546000", "093916.546000", "093956.515000", "093956.515000", "093956.515000", "093956.515000", "093956.531000", "093956.531000", "093956.531000", "093956.531000", "093956.531000", "093956.531000", "093956.531000", "093956.531000", "093956.546000", "093956.546000", "093956.546000", "093956.546000", "093956.546000", "093956.546000", "093956.546000", "093956.546000", "094015.187000", "094015.187000", "094015.187000", "094015.187000", "094015.187000", "094015.203000", "094015.203000", "094015.203000", "094015.203000", "094015.203000"],
      "InstanceNumber": [1, 2, 3, 4, 5, 6, 7, 8, 9, 10, 11, 12, 13, 14, 15, 16, 17, 18, 19, 20, 21, 22, 23, 24, 25, 26, 27, 28, 29, 30, 31, 32, 33, 34, 35, 36, 37, 38, 39, 40, 41, 42, 43, 44, 45, 46, 47, 48, 49, 50, 51, 52, 53, 54, 55, 56, 57, 58, 59, 60, 61, 62, 63, 64, 65, 66, 67, 68, 69, 70, 71, 72, 73, 74, 75, 76, 77, 78, 79, 80, 81, 82, 83, 84, 85, 86, 87, 88, 89, 90, 91, 92, 93, 94, 95, 96, 97, 98, 99, 100, 101, 102, 103, 104, 105, 106, 107, 108, 109, 110, 111, 112, 113, 114, 115, 116, 117, 118, 119, 120, 121, 122, 123, 124, 125, 126, 127, 128, 129, 130, 131, 132, 133, 134, 135, 136, 137, 138, 139, 140, 141, 142, 143, 144, 145, 146, 147, 148, 149, 150, 151, 152, 153, 154, 155, 156, 157, 158, 159, 160, 161, 162, 163, 164],
      "LargestImagePixelValue": [2171, 2082, 2070, 2053, 2136, 2045, 2108, 2059, 2051, 2058, 2079, 2049, 2066, 2055, 2041, 2042, 2152, 2056, 2062, 2042, 2062, 2029, 2040, 2055, 2032, 2049, 2057, 2040, 2069, 2059, 2047, 2041, 2039, 2191, 2045, 2055, 2053, 2056, 2055, 2059, 2051, 2058, 2047, 2066, 2055, 2045, 2057, 2078, 2136, 2065, 2061, 2072, 2075, 2040, 2063, 2073, 2066, 2061, 2045, 2060, 2057, 2081, 2066, 2050, 2057, 2058, 2057, 2043, 2075, 2058, 2059, 2066, 2078, 2046, 2066, 2069, 2053, 2069, 2053, 2053, 2042, 2076, 2051, 2063, 2055, 2054, 2045, 2052, 2075, 2052, 2051, 2063, 2119, 2059, 2069, 2067, 2074, 2182, 2056, 2056, 2052, 2061, 2059, 2228, 2061, 2072, 2069, 2066, 2065, 2091, 2088, 2075, 2055, 2053, 2039, 2047, 2049, 2137, 2077, 2071, 2063, 2099, 2081, 2059, 2086, 2066, 2054, 2069, 2120, 2086, 2080, 2081, 2059, 2113, 2061, 2134, 2059, 2078, 2327, 2079, 2074, 2092, 2074, 2063, 2061, 2086, 2212, 2088, 2061, 2177, 2048, 2077, 2069, 2096, 2077, 2085, 2183, 2073, 2090, 2058, 2077, 2071, 2067, 2065],
      "WindowCenter": [750.0, 747.0, 747.0, 746.0, 746.0, 745.0, 746.0, 745.0, 746.0, 746.0, 747.0, 746.0, 747.0, 747.0, 747.0, 746.0, 746.0, 746.0, 746.0, 746.0, 746.0, 746.0, 746.0, 746.0, 746.0, 747.0, 748.0, 747.0, 747.0, 747.0, 747.0, 748.0, 747.0, 747.0, 745.0, 746.0, 746.0, 747.0, 747.0, 747.0, 747.0, 747.0, 747.0, 747.0, 746.0, 747.0, 747.0, 747.0, 747.0, 747.0, 747.0, 747.0, 748.0, 747.0, 747.0, 747.0, 748.0, 747.0, 747.0, 748.0, 748.0, 748.0, 747.0, 747.0, 748.0, 748.0, 748.0, 748.0, 748.0, 746.0, 747.0, 747.0, 746.0, 747.0, 747.0, 747.0, 747.0, 747.0, 748.0, 747.0, 747.0, 747.0, 747.0, 747.0, 747.0, 747.0, 746.0, 746.0, 747.0, 747.0, 748.0, 748.0, 747.0, 747.0, 747.0, 748.0, 748.0, 748.0, 747.0, 747.0, 748.0, 748.0, 747.0, 747.0, 746.0, 747.0, 747.0, 748.0, 748.0, 749.0, 748.0, 748.0, 747.0, 747.0, 747.0, 747.0, 747.0, 747.0, 747.0, 748.0, 748.0, 748.0, 748.0, 748.0, 747.0, 748.0, 748.0, 748.0, 747.0, 747.0, 747.0, 748.0, 749.0, 748.0, 748.0, 748.0, 747.0, 747.0, 748.0, 748.0, 748.0, 748.0, 747.0, 748.0, 747.0, 748.0, 748.0, 748.0, 748.0, 748.0, 748.0, 748.0, 748.0, 749.0, 748.0, 747.0, 748.0, 748.0, 748.0, 748.0, 748.0, 748.0, 748.0, 748.0],
      "WindowWidth": [1647.0, 1640.0, 1639.0, 1637.0, 1636.0, 1633.0, 1635.0, 1634.0, 1635.0, 1636.0, 1638.0, 1636.0, 1639.0, 1640.0, 1638.0, 1637.0, 1637.0, 1636.0, 1636.0, 1635.0, 1636.0, 1635.0, 1636.0, 1636.0, 1636.0, 1637.0, 1640.0, 1638.0, 1639.0, 1638.0, 1639.0, 1641.0, 1638.0, 1637.0, 1633.0, 1635.0, 1636.0, 1639.0, 1637.0, 1638.0, 1638.0, 1639.0, 1638.0, 1638.0, 1636.0, 1639.0, 1640.0, 1639.0, 1639.0, 1638.0, 1639.0, 1640.0, 1641.0, 1638.0, 1639.0, 1639.0, 1641.0, 1640.0, 1640.0, 1640.0, 1641.0, 1642.0, 1639.0, 1639.0, 1641.0, 1640.0, 1641.0, 1641.0, 1641.0, 1636.0, 1637.0, 1637.0, 1637.0, 1638.0, 1640.0, 1640.0, 1638.0, 1639.0, 1640.0, 1638.0, 1637.0, 1639.0, 1637.0, 1641.0, 1639.0, 1639.0, 1637.0, 1637.0, 1638.0, 1639.0, 1641.0, 1640.0, 1640.0, 1639.0, 1639.0, 1641.0, 1641.0, 1641.0, 1638.0, 1639.0, 1641.0, 1642.0, 1638.0, 1639.0, 1636.0, 1638.0, 1640.0, 1640.0, 1643.0, 1644.0, 1643.0, 1643.0, 1639.0, 1639.0, 1639.0, 1639.0, 1639.0, 1640.0, 1640.0, 1641.0, 1641.0, 1642.0, 1641.0, 1640.0, 1640.0, 1640.0, 1641.0, 1642.0, 1640.0, 1640.0, 1639.0, 1643.0, 1644.0, 1643.0, 1641.0, 1642.0, 1638.0, 1638.0, 1643.0, 1642.0, 1642.0, 1641.0, 1638.0, 1640.0, 1639.0, 1640.0, 1642.0, 1641.0, 1641.0, 1642.0, 1640.0, 1642.0, 1642.0, 1645.0, 1641.0, 1640.0, 1641.0, 1640.0, 1640.0, 1641.0, 1640.0, 1641.0, 1642.0, 1642.0]
    },
    "slices": {}
  }
}