{
  "AcquisitionMatrixPE": 64,
  "AcquisitionNumber": 1,
  "AcquisitionTime": "09:28:20.925000",
  "BandwidthPerPixelPhaseEncode": 33.967,
  "BaseResolution": 64,
  "CoilCombinationMethod": "Sum of Squares",
  "CoilString": "C:HEA;HEP",
  "ConversionSoftware": "dcm2niix",
  "ConversionSoftwareVersion": "v1.0.20220720",
  "DerivedVendorReportedEchoSpacing": 0.000460005,
  "DeviceSerialNumber": "35193",
  "DwellTime": 3.1e-06,
  "EchoTime": 0.03,
  "EffectiveEchoSpacing": 0.000460005,
  "FlipAngle": 90,
  "HeudiconvVersion": "1.1.6",
  "ImageOrientationPatientDICOM": [0.9988, -0.00349063, -0.0488495, 0.00348646, 0.999994, -0.000170517],
  "ImageOrientationText": "Tra>Sag(-2.8)",
  "ImageType": [
    "ORIGINAL",
    "PRIMARY",
    "M",
    "ND",
    "MOSAIC"
],
  "ImagingFrequency": 123.254,
  "InPlanePhaseEncodingDirectionDICOM": "COL",
  "InstitutionAddress": "Xinjiekouwai Street No 19,Beijing,Haidian District,CN,100875",
  "InstitutionName": "BNU MRI Center",
  "InstitutionalDepartmentName": "Department",
  "MRAcquisitionType": "2D",
  "MagneticFieldStrength": 3,
  "Manufacturer": "Siemens",
  "ManufacturersModelName": "TrioTim",
  "MatrixCoilMode": "SENSE",
  "Modality": "MR",
  "NonlinearGradientCorrection": false,
  "PartialFourier": 1,
  "PatientPosition": "HFS",
  "PercentPhaseFOV": 100,
  "PercentSampling": 100,
  "PhaseEncodingDirection": "j-",
  "PhaseEncodingSteps": 64,
  "PhaseResolution": 1,
  "PixelBandwidth": 2520,
  "ProcedureStepDescription": "BNU_cst_2015^Guo.TaoMei",
  "ProtocolName": "ge_func_3x3x4_164",
  "PulseSequenceDetails": "%SiemensSeq%\\ep2d_bold",
  "ReceiveCoilName": "HeadMatrix",
  "ReconMatrixPE": 64,
  "RepetitionTime": 2,
  "SAR": 0.135198,
  "ScanOptions": "FS",
  "ScanningSequence": "EP",
  "SequenceName": "*epfid2d1_64",
  "SequenceVariant": "SK",
  "SeriesDescription": "ge_func_3x3x4_164",
  "SeriesNumber": 4,
  "ShimSetting": [-4536, -19396, -9849, 1082, -155, -432, -16, 30],
  "SliceThickness": 4,
  "SliceTiming": [0, 1.0325, 0.06, 1.095, 0.12, 1.155, 0.1825, 1.215, 0.2425, 1.2775, 0.3025, 1.3375, 0.365, 1.3975, 0.425, 1.46, 0.485, 1.52, 0.5475, 1.58, 0.6075, 1.6425, 0.6675, 1.7025, 0.73, 1.7625, 0.79, 1.825, 0.85, 1.885, 0.9125, 1.945, 0.9725],
  "SoftwareVersions": "syngo MR B17",
  "SpacingBetweenSlices": 4.6,
  "StationName": "MRC35193",
  "TaskName": "LanguageControl",
  "TotalReadoutTime": 0.0289803,
  "TxRefAmp": 352.983,
  "dcmmeta_affine": [
    [-3.1212501525878906, 0.01089518703520298, -0.2247089296579361, 101.1135025024414],
    [0.010908209718763828, 3.124980926513672, -1.8182044758674465e-09, -83.72949981689453],
    [-0.15265460312366486, 0.0005328647675924003, 4.594508171081543, -63.24611282348633],
    [0.0, 0.0, 0.0, 1.0]
],
  "dcmmeta_reorient_transform": [
    [0.0, -1.0, 0.0, 63.0],
    [1.0, 0.0, 0.0, 0.0],
    [0.0, 0.0, 1.0, 0.0],
    [0.0, 0.0, 0.0, 1.0]
],
  "dcmmeta_shape": [64, 64, 33, 164],
  "dcmmeta_slice_dim": 2,
  "dcmmeta_version": 0.6,
  "global": {
    "const": {
      "AcquisitionMatrix": [64, 0, 0, 64],
      "AngioFlag": "N",
      "BitsAllocated": 16,
      "BitsStored": 12,
      "Columns": 384,
      "EchoNumbers": 1,
      "EchoTime": 30.0,
      "EchoTrainLength": 1,
      "FlipAngle": 90.0,
      "HighBit": 11,
      "ImageOrientationPatient": [0.99880005240007, -0.0034906271015, -0.0488494713182, 0.00348645975301, 0.99999390774266, -0.0001705167221],
      "ImagePositionPatient": [-602.94315391584, -611.39594402403, -38.702547275931],
      "ImageType": [
        "ORIGINAL",
        "PRIMARY",
        "M",
        "ND",
        "MOSAIC"
],
      "ImagedNucleus": "1H",
      "ImagingFrequency": 123.253809,
      "InPlanePhaseEncodingDirection": "COL",
      "MRAcquisitionType": "2D",
      "MagneticFieldStrength": 3.0,
      "Manufacturer": "SIEMENS",
      "ManufacturerModelName": "TrioTim",
      "Modality": "MR",
      "NumberOfAverages": 1.0,
      "NumberOfPhaseEncodingSteps": 64,
      "PercentPhaseFieldOfView": 100.0,
      "PercentSampling": 100.0,
      "PerformedProcedureStepStartTime": "091305.234000",
      "PhotometricInterpretation": "MONOCHROME2",
      "PixelBandwidth": 2520.0,
      "PixelRepresentation": 0,
      "PixelSpacing": [3.125, 3.125],
      "ProtocolName": "ge_func_3x3x4_164",
      "RepetitionTime": 2000.0,
      "Rows": 384,
      "SAR": 0.13519816661726,
      "SamplesPerPixel": 1,
      "ScanOptions": "FS",
      "ScanningSequence": "EP",
      "SequenceName": "*epfid2d1_64",
      "SequenceVariant": "SK",
      "SeriesDescription": "ge_func_3x3x4_164",
      "SeriesNumber": 4,
      "SeriesTime": "092912.000000",
      "SliceLocation": -68.109975736907,
      "SliceThickness": 4.0,
      "SmallestImagePixelValue": 0,
      "SoftwareVersions": "syngo MR B17",
      "SpacingBetweenSlices": 4.5999999395543,
      "SpecificCharacterSet": "ISO_IR 100",
      "StudyID": "1",
      "StudyTime": "091304.468000",
      "TransmitCoilName": "Body",
      "VariableFlipAngleFlag": "N",
      "WindowCenterWidthExplanation": "Algo1",
      "dBdt": 0.0},
    "slices": {}
  },
  "time": {
    "samples": {
      "AcquisitionNumber": [1, 2, 3, 4, 5, 6, 7, 8, 9, 10, 11, 12, 13, 14, 15, 16, 17, 18, 19, 20, 21, 22, 23, 24, 25, 26, 27, 28, 29, 30, 31, 32, 33, 34, 35, 36, 37, 38, 39, 40, 41, 42, 43, 44, 45, 46, 47, 48, 49, 50, 51, 52, 53, 54, 55, 56, 57, 58, 59, 60, 61, 62, 63, 64, 65, 66, 67, 68, 69, 70, 71, 72, 73, 74, 75, 76, 77, 78, 79, 80, 81, 82, 83, 84, 85, 86, 87, 88, 89, 90, 91, 92, 93, 94, 95, 96, 97, 98, 99, 100, 101, 102, 103, 104, 105, 106, 107, 108, 109, 110, 111, 112, 113, 114, 115, 116, 117, 118, 119, 120, 121, 122, 123, 124, 125, 126, 127, 128, 129, 130, 131, 132, 133, 134, 135, 136, 137, 138, 139, 140, 141, 142, 143, 144, 145, 146, 147, 148, 149, 150, 151, 152, 153, 154, 155, 156, 157, 158, 159, 160, 161, 162, 163, 164],
      "AcquisitionTime": ["092820.925000", "092822.932500", "092824.940000", "092826.947500", "092828.955000", "092830.965000", "092832.972500", "092834.980000", "092836.987500", "092838.995000", "092841.005000", "092843.012500", "092845.020000", "092847.027500", "092849.037500", "092851.045000", "092853.052500", "092855.060000", "092857.067500", "092859.077500", "092901.085000", "092903.092500", "092905.100000", "092907.107500", "092909.117500", "092911.125000", "092913.132500", "092915.140000", "092917.150000", "092919.157500", "092921.165000", "092923.172500", "092925.180000", "092927.190000", "092929.197500", "092931.205000", "092933.212500", "092935.220000", "092937.230000", "092939.237500", "092941.245000", "092943.252500", "092945.262500", "092947.270000", "092949.277500", "092951.285000", "092953.292500", "092955.302500", "092957.310000", "092959.317500", "093001.325000", "093003.332500", "093005.342500", "093007.350000", "093009.357500", "093011.365000", "093013.372500", "093015.382500", "093017.390000", "093019.397500", "093021.405000", "093023.415000", "093025.422500", "093027.430000", "093029.437500", "093031.445000", "093033.455000", "093035.462500", "093037.470000", "093039.477500", "093041.485000", "093043.495000", "093045.502500", "093047.510000", "093049.517500", "093051.527500", "093053.535000", "093055.542500", "093057.550000", "093059.557500", "093101.567500", "093103.575000", "093105.582500", "093107.590000", "093109.597500", "093111.607500", "093113.615000", "093115.622500", "093117.630000", "093119.640000", "093121.647500", "093123.655000", "093125.662500", "093127.670000", "093129.680000", "093131.687500", "093133.695000", "093135.702500", "093137.710000", "093139.720000", "093141.727500", "093143.735000", "093145.742500", "093147.750000", "093149.760000", "093151.767500", "093153.775000", "093155.782500", "093157.792500", "093159.800000", "093201.807500", "093203.815000", "093205.822500", "093207.832500", "093209.840000", "093211.847500", "093213.855000", "093215.862500", "093217.872500", "093219.880000", "093221.887500", "093223.895000", "093225.905000", "093227.912500", "093229.920000", "093231.927500", "093233.935000", "093235.945000", "093237.952500", "093239.960000", "093241.967500", "093243.975000", "093245.985000", "093247.992500", "093250.000000", "093252.007500", "093254.017500", "093256.025000", "093258.032500", "093300.040000", "093302.047500", "093304.057500", "093306.065000", "093308.072500", "093310.080000", "093312.087500", "093314.097500", "093316.105000", "093318.112500", "093320.120000", "093322.127500", "093324.137500", "093326.145000", "093328.152500", "093330.160000", "093332.170000", "093334.177500", "093336.185000", "093338.192500", "093340.200000", "093342.210000", "093344.217500", "093346.225000", "093348.232500"],
      "ContentTime": ["092912.000000", "092912.000000", "092912.000000", "092912.015000", "092912.015000", "092912.015000", "092912.015000", "092912.015000", "092912.015000", "092912.015000", "092912.015000", "092912.031000", "092912.031000", "092912.031000", "092912.031000", "092912.031000", "092912.031000", "092912.031000", "092912.031000", "092912.046000", "092912.046000", "092912.046000", "092912.046000", "092912.046000", "092912.046000", "092952.000000", "092952.000000", "092952.000000", "092952.000000", "092952.000000", "092952.000000", "092952.015000", "092952.015000", "092952.015000", "092952.015000", "092952.031000", "092952.031000", "092952.031000", "092952.031000", "092952.031000", "092952.046000", "092952.046000", "092952.046000", "092952.046000", "092952.046000", "093032.000000", "093032.000000", "093032.000000", "093032.000000", "093032.015000", "093032.015000", "093032.015000", "093032.015000", "093032.015000", "093032.031000", "093032.031000", "093032.031000", "093032.031000", "093032.046000", "093032.046000", "093032.046000", "093032.046000", "093032.046000", "093032.046000", "093032.046000", "093112.000000", "093112.000000", "093112.000000", "093112.000000", "093112.000000", "093112.000000", "093112.000000", "093112.015000", "093112.015000", "093112.015000", "093112.015000", "093112.015000", "093112.015000", "093112.015000", "093112.015000", "093112.031000", "093112.031000", "093112.031000", "093112.031000", "093112.031000", "093152.000000", "093152.000000", "093152.000000", "093152.000000", "093152.000000", "093152.000000", "093152.015000", "093152.015000", "093152.015000", "093152.015000", "093152.015000", "093152.015000", "093152.015000", "093152.015000", "093152.031000", "093152.031000", "093152.031000", "093152.031000", "093152.031000", "093152.031000", "093232.000000", "093232.000000", "093232.000000", "093232.000000", "093232.000000", "093232.000000", "093232.000000", "093232.015000", "093232.015000", "093232.015000", "093232.015000", "093232.015000", "093232.015000", "093232.015000", "093232.015000", "093232.031000", "093232.031000", "093232.031000", "093232.031000", "093232.031000", "093312.000000", "093312.000000", "093312.000000", "093312.000000", "093312.000000", "093312.015000", "093312.015000", "093312.015000", "093312.015000", "093312.015000", "093312.015000", "093312.015000", "093312.015000", "093312.031000", "093312.031000", "093312.031000", "093312.031000", "093312.031000", "093312.031000", "093312.031000", "093349.218000", "093349.218000", "093349.234000", "093349.234000", "093349.234000", "093349.234000", "093349.234000", "093349.234000", "093349.234000", "093349.250000", "093349.250000", "093349.250000", "093349.250000", "093349.250000", "093349.250000", "093349.250000", "093349.250000", "093349.265000", "093349.265000"],
      "InstanceCreationTime": ["092912.000000", "092912.000000", "092912.000000", "092912.015000", "092912.015000", "092912.015000", "092912.015000", "092912.015000", "092912.015000", "092912.015000", "092912.015000", "092912.031000", "092912.031000", "092912.031000", "092912.031000", "092912.031000", "092912.031000", "092912.031000", "092912.031000", "092912.046000", "092912.046000", "092912.046000", "092912.046000", "092912.046000", "092912.046000", "092952.000000", "092952.000000", "092952.000000", "092952.000000", "092952.000000", "092952.000000", "092952.015000", "092952.015000", "092952.015000", "092952.015000", "092952.031000", "092952.031000", "092952.031000", "092952.031000", "092952.031000", "092952.046000", "092952.046000", "092952.046000", "092952.046000", "092952.046000", "093032.000000", "093032.000000", "093032.000000", "093032.000000", "093032.015000", "093032.015000", "093032.015000", "093032.015000", "093032.015000", "093032.031000", "093032.031000", "093032.031000", "093032.031000", "093032.046000", "093032.046000", "093032.046000", "093032.046000", "093032.046000", "093032.046000", "093032.046000", "093112.000000", "093112.000000", "093112.000000", "093112.000000", "093112.000000", "093112.000000", "093112.000000", "093112.015000", "093112.015000", "093112.015000", "093112.015000", "093112.015000", "093112.015000", "093112.015000", "093112.015000", "093112.031000", "093112.031000", "093112.031000", "093112.031000", "093112.031000", "093152.000000", "093152.000000", "093152.000000", "093152.000000", "093152.000000", "093152.000000", "093152.015000", "093152.015000", "093152.015000", "093152.015000", "093152.015000", "093152.015000", "093152.015000", "093152.015000", "093152.031000", "093152.031000", "093152.031000", "093152.031000", "093152.031000", "093152.031000", "093232.000000", "093232.000000", "093232.000000", "093232.000000", "093232.000000", "093232.000000", "093232.000000", "093232.015000", "093232.015000", "093232.015000", "093232.015000", "093232.015000", "093232.015000", "093232.015000", "093232.015000", "093232.031000", "093232.031000", "093232.031000", "093232.031000", "093232.031000", "093312.000000", "093312.000000", "093312.000000", "093312.000000", "093312.000000", "093312.015000", "093312.015000", "093312.015000", "093312.015000", "093312.015000", "093312.015000", "093312.015000", "093312.015000", "093312.031000", "093312.031000", "093312.031000", "093312.031000", "093312.031000", "093312.031000", "093312.031000", "093349.218000", "093349.218000", "093349.234000", "093349.234000", "093349.234000", "093349.234000", "093349.234000", "093349.234000", "093349.234000", "093349.250000", "093349.250000", "093349.250000", "093349.250000", "093349.250000", "093349.250000", "093349.250000", "093349.250000", "093349.265000", "093349.265000"],
      "InstanceNumber": [1, 2, 3, 4, 5, 6, 7, 8, 9, 10, 11, 12, 13, 14, 15, 16, 17, 18, 19, 20, 21, 22, 23, 24, 25, 26, 27, 28, 29, 30, 31, 32, 33, 34, 35, 36, 37, 38, 39, 40, 41, 42, 43, 44, 45, 46, 47, 48, 49, 50, 51, 52, 53, 54, 55, 56, 57, 58, 59, 60, 61, 62, 63, 64, 65, 66, 67, 68, 69, 70, 71, 72, 73, 74, 75, 76, 77, 78, 79, 80, 81, 82, 83, 84, 85, 86, 87, 88, 89, 90, 91, 92, 93, 94, 95, 96, 97, 98, 99, 100, 101, 102, 103, 104, 105, 106, 107, 108, 109, 110, 111, 112, 113, 114, 115, 116, 117, 118, 119, 120, 121, 122, 123, 124, 125, 126, 127, 128, 129, 130, 131, 132, 133, 134, 135, 136, 137, 138, 139, 140, 141, 142, 143, 144, 145, 146, 147, 148, 149, 150, 151, 152, 153, 154, 155, 156, 157, 158, 159, 160, 161, 162, 163, 164],
      "LargestImagePixelValue": [2175, 2098, 2079, 2063, 2064, 2133, 2070, 2097, 2073, 2063, 2081, 2085, 2077, 2077, 2079, 2070, 2078, 2078, 2067, 2093, 2062, 2075, 2093, 2081, 2072, 2060, 2105, 2059, 2096, 2068, 2069, 2056, 2082, 2093, 2073, 2081, 2072, 2074, 2077, 2082, 2101, 2070, 2083, 2082, 2072, 2086, 2080, 2077, 2076, 2079, 2080, 2080, 2085, 2079, 2068, 2064, 2098, 2080, 2083, 2086, 2079, 2087, 2174, 2087, 2090, 2076, 2089, 2087, 2069, 2067, 2067, 2066, 2083, 2097, 2065, 2085, 2086, 2099, 2082, 2077, 2074, 2073, 2075, 2074, 2095, 2068, 2099, 2075, 2081, 2083, 2088, 2091, 2080, 2091, 2068, 2089, 2087, 2156, 2087, 2068, 2119, 2075, 2097, 2076, 2087, 2083, 2081, 2094, 2078, 2091, 2076, 2087, 2065, 2089, 2095, 2100, 2082, 2073, 2067, 2097, 2088, 2085, 2086, 2088, 2115, 2091, 2080, 2077, 2098, 2087, 2075, 2104, 2073, 2073, 2108, 2100, 2090, 2158, 2114, 2093, 2091, 2099, 2092, 2096, 2108, 2065, 2093, 2091, 2087, 2083, 2076, 2095, 2097, 2105, 2086, 2100, 2097, 2125, 2079, 2097, 2102, 2071, 2098, 2084],
      "WindowCenter": [749.0, 747.0, 748.0, 747.0, 746.0, 745.0, 746.0, 746.0, 746.0, 746.0, 746.0, 747.0, 747.0, 747.0, 747.0, 747.0, 747.0, 747.0, 748.0, 748.0, 748.0, 748.0, 749.0, 749.0, 749.0, 748.0, 747.0, 747.0, 748.0, 748.0, 748.0, 748.0, 748.0, 748.0, 747.0, 748.0, 748.0, 749.0, 749.0, 747.0, 747.0, 748.0, 748.0, 748.0, 748.0, 748.0, 748.0, 749.0, 748.0, 748.0, 748.0, 748.0, 747.0, 748.0, 748.0, 748.0, 748.0, 748.0, 749.0, 749.0, 749.0, 749.0, 749.0, 749.0, 749.0, 749.0, 749.0, 749.0, 749.0, 748.0, 749.0, 748.0, 748.0, 747.0, 747.0, 747.0, 747.0, 748.0, 748.0, 748.0, 748.0, 749.0, 748.0, 747.0, 747.0, 747.0, 747.0, 748.0, 749.0, 748.0, 748.0, 748.0, 747.0, 749.0, 749.0, 749.0, 748.0, 749.0, 749.0, 748.0, 748.0, 747.0, 747.0, 748.0, 748.0, 748.0, 748.0, 748.0, 748.0, 747.0, 748.0, 748.0, 747.0, 747.0, 747.0, 748.0, 748.0, 748.0, 749.0, 748.0, 748.0, 748.0, 748.0, 747.0, 747.0, 747.0, 748.0, 749.0, 750.0, 749.0, 749.0, 749.0, 749.0, 749.0, 748.0, 749.0, 749.0, 749.0, 749.0, 748.0, 748.0, 748.0, 748.0, 747.0, 747.0, 748.0, 748.0, 747.0, 747.0, 748.0, 749.0, 749.0, 748.0, 748.0, 748.0, 748.0, 748.0, 747.0, 748.0, 748.0, 748.0, 747.0, 748.0, 748.0],
      "WindowWidth": [1645.0, 1638.0, 1641.0, 1638.0, 1636.0, 1634.0, 1636.0, 1637.0, 1636.0, 1637.0, 1637.0, 1639.0, 1638.0, 1639.0, 1638.0, 1638.0, 1639.0, 1638.0, 1640.0, 1641.0, 1643.0, 1643.0, 1644.0, 1645.0, 1644.0, 1642.0, 1640.0, 1639.0, 1640.0, 1640.0, 1642.0, 1642.0, 1641.0, 1640.0, 1639.0, 1642.0, 1642.0, 1644.0, 1643.0, 1638.0, 1640.0, 1640.0, 1642.0, 1642.0, 1643.0, 1641.0, 1642.0, 1643.0, 1643.0, 1642.0, 1641.0, 1641.0, 1640.0, 1641.0, 1641.0, 1640.0, 1641.0, 1641.0, 1643.0, 1644.0, 1646.0, 1645.0, 1644.0, 1643.0, 1644.0, 1644.0, 1643.0, 1644.0, 1643.0, 1642.0, 1643.0, 1642.0, 1640.0, 1639.0, 1637.0, 1638.0, 1639.0, 1641.0, 1640.0, 1642.0, 1642.0, 1643.0, 1641.0, 1638.0, 1638.0, 1639.0, 1640.0, 1642.0, 1644.0, 1643.0, 1640.0, 1641.0, 1639.0, 1644.0, 1643.0, 1643.0, 1642.0, 1646.0, 1645.0, 1642.0, 1641.0, 1639.0, 1638.0, 1641.0, 1642.0, 1641.0, 1642.0, 1640.0, 1641.0, 1640.0, 1641.0, 1641.0, 1638.0, 1638.0, 1638.0, 1641.0, 1641.0, 1641.0, 1644.0, 1643.0, 1642.0, 1644.0, 1641.0, 1640.0, 1640.0, 1640.0, 1643.0, 1645.0, 1647.0, 1646.0, 1644.0, 1644.0, 1645.0, 1644.0, 1642.0, 1646.0, 1645.0, 1644.0, 1644.0, 1643.0, 1642.0, 1642.0, 1640.0, 1639.0, 1639.0, 1641.0, 1640.0, 1637.0, 1639.0, 1642.0, 1643.0, 1643.0, 1642.0, 1642.0, 1643.0, 1643.0, 1641.0, 1640.0, 1641.0, 1643.0, 1640.0, 1639.0, 1642.0, 1640.0]
    },
    "slices": {}
  }
}