{
  "AcquisitionMatrixPE": 64,
  "AcquisitionNumber": 1,
  "AcquisitionTime": "13:51:16.192500",
  "BandwidthPerPixelPhaseEncode": 33.967,
  "BaseResolution": 64,
  "CoilCombinationMethod": "Sum of Squares",
  "CoilString": "C:HEA;HEP",
  "ConversionSoftware": "dcm2niix",
  "ConversionSoftwareVersion": "v1.0.20220720",
  "DerivedVendorReportedEchoSpacing": 0.000460005,
  "DeviceSerialNumber": "35193",
  "DwellTime": 3.1e-06,
  "EchoTime": 0.03,
  "EffectiveEchoSpacing": 0.000460005,
  "FlipAngle": 90,
  "HeudiconvVersion": "1.1.6",
  "ImageOrientationPatientDICOM": [0.999793, -0.0174524, -0.0104702, 0.0174515, 0.999848, -0.000182758],
  "ImageOrientationText": "Tra>Sag(-0.6)",
  "ImageType": [
    "ORIGINAL",
    "PRIMARY",
    "M",
    "ND",
    "MOSAIC"
],
  "ImagingFrequency": 123.254,
  "InPlanePhaseEncodingDirectionDICOM": "COL",
  "InstitutionAddress": "Xinjiekouwai Street No 19,Beijing,Haidian District,CN,100875",
  "InstitutionName": "BNU MRI Center",
  "InstitutionalDepartmentName": "Department",
  "MRAcquisitionType": "2D",
  "MagneticFieldStrength": 3,
  "Manufacturer": "Siemens",
  "ManufacturersModelName": "TrioTim",
  "MatrixCoilMode": "SENSE",
  "Modality": "MR",
  "NonlinearGradientCorrection": false,
  "PartialFourier": 1,
  "PatientPosition": "HFS",
  "PercentPhaseFOV": 100,
  "PercentSampling": 100,
  "PhaseEncodingDirection": "j-",
  "PhaseEncodingSteps": 64,
  "PhaseResolution": 1,
  "PixelBandwidth": 2520,
  "ProcedureStepDescription": "BNU_cst_2015^Guo.TaoMei",
  "ProtocolName": "ge_func_3x3x4_164",
  "PulseSequenceDetails": "%SiemensSeq%\\ep2d_bold",
  "ReceiveCoilName": "HeadMatrix",
  "ReconMatrixPE": 64,
  "RepetitionTime": 2,
  "SAR": 0.176616,
  "ScanOptions": "FS",
  "ScanningSequence": "EP",
  "SequenceName": "*epfid2d1_64",
  "SequenceVariant": "SK",
  "SeriesDescription": "ge_func_3x3x4_164",
  "SeriesNumber": 5,
  "ShimSetting": [-4527, -19543, -9767, 1188, -120, -621, -199, 9],
  "SliceThickness": 4,
  "SliceTiming": [0, 1.035, 0.06, 1.095, 0.1225, 1.155, 0.1825, 1.2175, 0.2425, 1.2775, 0.305, 1.3375, 0.365, 1.4, 0.425, 1.46, 0.4875, 1.52, 0.5475, 1.5825, 0.6075, 1.6425, 0.67, 1.7025, 0.73, 1.765, 0.79, 1.825, 0.8525, 1.885, 0.9125, 1.9475, 0.9725],
  "SoftwareVersions": "syngo MR B17",
  "SpacingBetweenSlices": 4.6,
  "StationName": "MRC35193",
  "TaskName": "CognitiveControl",
  "TotalReadoutTime": 0.0289803,
  "TxRefAmp": 337.418,
  "dcmmeta_affine": [
    [-3.1243526935577393, 0.05453580990433693, -0.04817020520567894, 104.45699310302734],
    [0.054538801312446594, 3.1245241165161133, 5.017379289817825e-10, -89.15970611572266],
    [-0.032719340175390244, 0.000571118202060461, 4.599747657775879, -43.55459976196289],
    [0.0, 0.0, 0.0, 1.0]
],
  "dcmmeta_reorient_transform": [
    [0.0, -1.0, 0.0, 63.0],
    [1.0, 0.0, 0.0, 0.0],
    [0.0, 0.0, 1.0, 0.0],
    [0.0, 0.0, 0.0, 1.0]
],
  "dcmmeta_shape": [64, 64, 33, 164],
  "dcmmeta_slice_dim": 2,
  "dcmmeta_version": 0.6,
  "global": {
    "const": {
      "AcquisitionMatrix": [64, 0, 0, 64],
      "AngioFlag": "N",
      "BitsAllocated": 16,
      "BitsStored": 12,
      "Columns": 384,
      "EchoNumbers": 1,
      "EchoTime": 30.0,
      "EchoTrainLength": 1,
      "FlipAngle": 90.0,
      "HighBit": 11,
      "ImageOrientationPatient": [0.99979287271131, -0.0174524158745, -0.0104701889097, 0.01745145894866, 0.99984769499166, -0.000182757817],
      "ImagePositionPatient": [-616.51491249925, -598.88295013173, -38.192147674441],
      "ImageType": [
        "ORIGINAL",
        "PRIMARY",
        "M",
        "ND",
        "MOSAIC"
],
      "ImagedNucleus": "1H",
      "ImagingFrequency": 123.253668,
      "InPlanePhaseEncodingDirection": "COL",
      "MRAcquisitionType": "2D",
      "MagneticFieldStrength": 3.0,
      "Manufacturer": "SIEMENS",
      "ManufacturerModelName": "TrioTim",
      "Modality": "MR",
      "NumberOfAverages": 1.0,
      "NumberOfPhaseEncodingSteps": 64,
      "PercentPhaseFieldOfView": 100.0,
      "PercentSampling": 100.0,
      "PerformedProcedureStepStartTime": "133507.406000",
      "PhotometricInterpretation": "MONOCHROME2",
      "PixelBandwidth": 2520.0,
      "PixelRepresentation": 0,
      "PixelSpacing": [3.125, 3.125],
      "ProtocolName": "ge_func_3x3x4_164",
      "RepetitionTime": 2000.0,
      "Rows": 384,
      "SAR": 0.17661598762441,
      "SamplesPerPixel": 1,
      "ScanOptions": "FS",
      "ScanningSequence": "EP",
      "SequenceName": "*epfid2d1_64",
      "SequenceVariant": "SK",
      "SeriesDescription": "ge_func_3x3x4_164",
      "SeriesNumber": 5,
      "SeriesTime": "135214.421000",
      "SliceLocation": -44.646064390671,
      "SliceThickness": 4.0,
      "SmallestImagePixelValue": 0,
      "SoftwareVersions": "syngo MR B17",
      "SpacingBetweenSlices": 4.5999998787221,
      "SpecificCharacterSet": "ISO_IR 100",
      "StudyID": "1",
      "StudyTime": "133507.328000",
      "TransmitCoilName": "Body",
      "VariableFlipAngleFlag": "N",
      "WindowCenterWidthExplanation": "Algo1",
      "dBdt": 0.0},
    "slices": {}
  },
  "time": {
    "samples": {
      "AcquisitionNumber": [1, 2, 3, 4, 5, 6, 7, 8, 9, 10, 11, 12, 13, 14, 15, 16, 17, 18, 19, 20, 21, 22, 23, 24, 25, 26, 27, 28, 29, 30, 31, 32, 33, 34, 35, 36, 37, 38, 39, 40, 41, 42, 43, 44, 45, 46, 47, 48, 49, 50, 51, 52, 53, 54, 55, 56, 57, 58, 59, 60, 61, 62, 63, 64, 65, 66, 67, 68, 69, 70, 71, 72, 73, 74, 75, 76, 77, 78, 79, 80, 81, 82, 83, 84, 85, 86, 87, 88, 89, 90, 91, 92, 93, 94, 95, 96, 97, 98, 99, 100, 101, 102, 103, 104, 105, 106, 107, 108, 109, 110, 111, 112, 113, 114, 115, 116, 117, 118, 119, 120, 121, 122, 123, 124, 125, 126, 127, 128, 129, 130, 131, 132, 133, 134, 135, 136, 137, 138, 139, 140, 141, 142, 143, 144, 145, 146, 147, 148, 149, 150, 151, 152, 153, 154, 155, 156, 157, 158, 159, 160, 161, 162, 163, 164],
      "AcquisitionTime": ["135116.192500", "135118.200000", "135120.207500", "135122.215000", "135124.225000", "135126.232500", "135128.240000", "135130.247500", "135132.257500", "135134.265000", "135136.272500", "135138.280000", "135140.287500", "135142.297500", "135144.305000", "135146.312500", "135148.320000", "135150.327500", "135152.337500", "135154.345000", "135156.352500", "135158.360000", "135200.370000", "135202.377500", "135204.385000", "135206.392500", "135208.400000", "135210.410000", "135212.417500", "135214.425000", "135216.432500", "135218.440000", "135220.450000", "135222.457500", "135224.465000", "135226.472500", "135228.482500", "135230.490000", "135232.497500", "135234.505000", "135236.512500", "135238.522500", "135240.530000", "135242.537500", "135244.545000", "135246.552500", "135248.562500", "135250.570000", "135252.577500", "135254.585000", "135256.592500", "135258.602500", "135300.610000", "135302.617500", "135304.625000", "135306.635000", "135308.642500", "135310.650000", "135312.657500", "135314.665000", "135316.675000", "135318.682500", "135320.690000", "135322.697500", "135324.705000", "135326.715000", "135328.722500", "135330.730000", "135332.737500", "135334.747500", "135336.755000", "135338.762500", "135340.770000", "135342.777500", "135344.787500", "135346.795000", "135348.802500", "135350.810000", "135352.817500", "135354.827500", "135356.835000", "135358.842500", "135400.850000", "135402.860000", "135404.867500", "135406.875000", "135408.882500", "135410.890000", "135412.900000", "135414.907500", "135416.915000", "135418.922500", "135420.930000", "135422.940000", "135424.947500", "135426.955000", "135428.962500", "135430.970000", "135432.980000", "135434.987500", "135436.995000", "135439.002500", "135441.012500", "135443.020000", "135445.027500", "135447.035000", "135449.042500", "135451.052500", "135453.060000", "135455.067500", "135457.075000", "135459.082500", "135501.092500", "135503.100000", "135505.107500", "135507.115000", "135509.125000", "135511.132500", "135513.140000", "135515.147500", "135517.155000", "135519.165000", "135521.172500", "135523.180000", "135525.187500", "135527.195000", "135529.205000", "135531.212500", "135533.220000", "135535.227500", "135537.237500", "135539.245000", "135541.252500", "135543.260000", "135545.267500", "135547.277500", "135549.285000", "135551.292500", "135553.300000", "135555.307500", "135557.317500", "135559.325000", "135601.332500", "135603.340000", "135605.347500", "135607.357500", "135609.365000", "135611.372500", "135613.380000", "135615.390000", "135617.397500", "135619.405000", "135621.412500", "135623.420000", "135625.430000", "135627.437500", "135629.445000", "135631.452500", "135633.460000", "135635.470000", "135637.477500", "135639.485000", "135641.492500", "135643.502500"],
      "ContentTime": ["135214.421000", "135214.421000", "135214.421000", "135214.437000", "135214.437000", "135214.437000", "135214.437000", "135214.437000", "135214.437000", "135214.437000", "135214.437000", "135214.453000", "135214.453000", "135214.453000", "135214.453000", "135214.468000", "135214.468000", "135214.468000", "135214.468000", "135214.484000", "135214.484000", "135214.484000", "135214.484000", "135214.484000", "135214.484000", "135214.484000", "135214.500000", "135214.500000", "135254.421000", "135254.421000", "135254.421000", "135254.421000", "135254.421000", "135254.421000", "135254.421000", "135254.437000", "135254.437000", "135254.437000", "135254.437000", "135254.437000", "135254.437000", "135254.437000", "135254.437000", "135254.453000", "135254.453000", "135254.453000", "135254.453000", "135254.453000", "135334.421000", "135334.421000", "135334.421000", "135334.421000", "135334.421000", "135334.421000", "135334.421000", "135334.437000", "135334.437000", "135334.437000", "135334.437000", "135334.437000", "135334.437000", "135334.437000", "135334.437000", "135334.453000", "135334.453000", "135334.453000", "135334.453000", "135334.453000", "135414.421000", "135414.421000", "135414.421000", "135414.421000", "135414.421000", "135414.437000", "135414.437000", "135414.437000", "135414.437000", "135414.437000", "135414.437000", "135414.437000", "135414.453000", "135414.453000", "135414.453000", "135414.453000", "135414.453000", "135414.453000", "135414.453000", "135414.453000", "135454.421000", "135454.421000", "135454.421000", "135454.421000", "135454.421000", "135454.421000", "135454.421000", "135454.437000", "135454.437000", "135454.437000", "135454.437000", "135454.437000", "135454.437000", "135454.437000", "135454.453000", "135454.453000", "135454.453000", "135454.453000", "135454.453000", "135454.453000", "135534.421000", "135534.421000", "135534.421000", "135534.421000", "135534.421000", "135534.437000", "135534.437000", "135534.437000", "135534.437000", "135534.437000", "135534.437000", "135534.437000", "135534.453000", "135534.453000", "135534.453000", "135534.453000", "135534.453000", "135534.453000", "135534.453000", "135534.453000", "135614.421000", "135614.421000", "135614.421000", "135614.421000", "135614.437000", "135614.437000", "135614.437000", "135614.437000", "135614.437000", "135614.437000", "135614.437000", "135614.437000", "135614.453000", "135614.453000", "135614.453000", "135614.453000", "135614.468000", "135614.468000", "135614.468000", "135614.468000", "135644.546000", "135644.546000", "135644.546000", "135644.546000", "135644.546000", "135644.546000", "135644.546000", "135644.546000", "135644.562000", "135644.562000", "135644.562000", "135644.562000", "135644.562000", "135644.562000", "135644.562000", "135644.578000"],
      "InstanceCreationTime": ["135214.421000", "135214.421000", "135214.421000", "135214.437000", "135214.437000", "135214.437000", "135214.437000", "135214.437000", "135214.437000", "135214.437000", "135214.437000", "135214.453000", "135214.453000", "135214.453000", "135214.453000", "135214.468000", "135214.468000", "135214.468000", "135214.468000", "135214.484000", "135214.484000", "135214.484000", "135214.484000", "135214.484000", "135214.484000", "135214.484000", "135214.500000", "135214.500000", "135254.421000", "135254.421000", "135254.421000", "135254.421000", "135254.421000", "135254.421000", "135254.421000", "135254.437000", "135254.437000", "135254.437000", "135254.437000", "135254.437000", "135254.437000", "135254.437000", "135254.437000", "135254.453000", "135254.453000", "135254.453000", "135254.453000", "135254.453000", "135334.421000", "135334.421000", "135334.421000", "135334.421000", "135334.421000", "135334.421000", "135334.421000", "135334.437000", "135334.437000", "135334.437000", "135334.437000", "135334.437000", "135334.437000", "135334.437000", "135334.437000", "135334.453000", "135334.453000", "135334.453000", "135334.453000", "135334.453000", "135414.421000", "135414.421000", "135414.421000", "135414.421000", "135414.421000", "135414.437000", "135414.437000", "135414.437000", "135414.437000", "135414.437000", "135414.437000", "135414.437000", "135414.453000", "135414.453000", "135414.453000", "135414.453000", "135414.453000", "135414.453000", "135414.453000", "135414.453000", "135454.421000", "135454.421000", "135454.421000", "135454.421000", "135454.421000", "135454.421000", "135454.421000", "135454.437000", "135454.437000", "135454.437000", "135454.437000", "135454.437000", "135454.437000", "135454.437000", "135454.453000", "135454.453000", "135454.453000", "135454.453000", "135454.453000", "135454.453000", "135534.421000", "135534.421000", "135534.421000", "135534.421000", "135534.421000", "135534.437000", "135534.437000", "135534.437000", "135534.437000", "135534.437000", "135534.437000", "135534.437000", "135534.453000", "135534.453000", "135534.453000", "135534.453000", "135534.453000", "135534.453000", "135534.453000", "135534.453000", "135614.421000", "135614.421000", "135614.421000", "135614.421000", "135614.437000", "135614.437000", "135614.437000", "135614.437000", "135614.437000", "135614.437000", "135614.437000", "135614.437000", "135614.453000", "135614.453000", "135614.453000", "135614.453000", "135614.468000", "135614.468000", "135614.468000", "135614.468000", "135644.546000", "135644.546000", "135644.546000", "135644.546000", "135644.546000", "135644.546000", "135644.546000", "135644.546000", "135644.562000", "135644.562000", "135644.562000", "135644.562000", "135644.562000", "135644.562000", "135644.562000", "135644.578000"],
      "InstanceNumber": [1, 2, 3, 4, 5, 6, 7, 8, 9, 10, 11, 12, 13, 14, 15, 16, 17, 18, 19, 20, 21, 22, 23, 24, 25, 26, 27, 28, 29, 30, 31, 32, 33, 34, 35, 36, 37, 38, 39, 40, 41, 42, 43, 44, 45, 46, 47, 48, 49, 50, 51, 52, 53, 54, 55, 56, 57, 58, 59, 60, 61, 62, 63, 64, 65, 66, 67, 68, 69, 70, 71, 72, 73, 74, 75, 76, 77, 78, 79, 80, 81, 82, 83, 84, 85, 86, 87, 88, 89, 90, 91, 92, 93, 94, 95, 96, 97, 98, 99, 100, 101, 102, 103, 104, 105, 106, 107, 108, 109, 110, 111, 112, 113, 114, 115, 116, 117, 118, 119, 120, 121, 122, 123, 124, 125, 126, 127, 128, 129, 130, 131, 132, 133, 134, 135, 136, 137, 138, 139, 140, 141, 142, 143, 144, 145, 146, 147, 148, 149, 150, 151, 152, 153, 154, 155, 156, 157, 158, 159, 160, 161, 162, 163, 164],
      "LargestImagePixelValue": [2269, 2201, 2167, 2139, 2152, 2146, 2168, 2133, 2147, 2148, 2158, 2160, 2152, 2174, 2172, 2153, 2150, 2144, 2149, 2176, 2140, 2148, 2140, 2133, 2154, 2140, 2150, 2134, 2148, 2150, 2135, 2113, 2143, 2144, 2181, 2131, 2141, 2166, 2163, 2161, 2149, 2145, 2151, 2169, 2156, 2150, 2153, 2144, 2128, 2130, 2131, 2147, 2141, 2146, 2130, 2112, 2145, 2133, 2140, 2126, 2124, 2128, 2119, 2105, 2132, 2108, 2129, 2129, 2107, 2132, 2130, 2112, 2116, 2119, 2126, 2139, 2143, 2121, 2138, 2109, 2116, 2121, 2103, 2130, 2110, 2113, 2113, 2115, 2101, 2130, 2115, 2111, 2108, 2108, 2102, 2131, 2093, 2079, 2097, 2091, 2117, 2094, 2103, 2086, 2114, 2113, 2110, 2121, 2109, 2082, 2085, 2072, 2109, 2101, 2100, 2107, 2091, 2103, 2097, 2097, 2094, 2091, 2105, 2109, 2100, 2106, 2082, 2100, 2071, 2086, 2080, 2075, 2083, 2112, 2088, 2086, 2084, 2083, 2092, 2085, 2099, 2096, 2081, 2073, 2076, 2092, 2083, 2082, 2084, 2079, 2087, 2082, 2095, 2085, 2062, 2071, 2086, 2072, 2082, 2076, 2120, 2129, 2107, 2098],
      "WindowCenter": [738.0, 735.0, 734.0, 733.0, 733.0, 732.0, 733.0, 733.0, 732.0, 732.0, 732.0, 732.0, 732.0, 733.0, 733.0, 732.0, 733.0, 732.0, 733.0, 733.0, 732.0, 732.0, 733.0, 733.0, 732.0, 732.0, 734.0, 733.0, 733.0, 732.0, 733.0, 733.0, 733.0, 732.0, 732.0, 733.0, 734.0, 734.0, 734.0, 733.0, 733.0, 733.0, 733.0, 733.0, 733.0, 733.0, 734.0, 734.0, 733.0, 734.0, 735.0, 733.0, 733.0, 733.0, 734.0, 734.0, 733.0, 733.0, 733.0, 733.0, 733.0, 733.0, 734.0, 735.0, 736.0, 734.0, 734.0, 734.0, 734.0, 735.0, 735.0, 734.0, 734.0, 734.0, 733.0, 733.0, 733.0, 733.0, 733.0, 733.0, 733.0, 733.0, 733.0, 734.0, 735.0, 734.0, 733.0, 733.0, 733.0, 733.0, 733.0, 733.0, 733.0, 734.0, 734.0, 734.0, 734.0, 734.0, 734.0, 734.0, 733.0, 734.0, 733.0, 733.0, 734.0, 734.0, 733.0, 733.0, 733.0, 734.0, 734.0, 734.0, 735.0, 735.0, 735.0, 734.0, 733.0, 733.0, 733.0, 734.0, 735.0, 735.0, 734.0, 733.0, 734.0, 734.0, 734.0, 733.0, 733.0, 733.0, 734.0, 736.0, 736.0, 735.0, 733.0, 733.0, 732.0, 732.0, 733.0, 733.0, 734.0, 734.0, 734.0, 734.0, 735.0, 735.0, 734.0, 734.0, 733.0, 734.0, 735.0, 736.0, 734.0, 734.0, 734.0, 734.0, 734.0, 735.0, 737.0, 737.0, 735.0, 733.0, 733.0, 732.0],
      "WindowWidth": [1635.0, 1625.0, 1622.0, 1619.0, 1619.0, 1618.0, 1620.0, 1619.0, 1616.0, 1617.0, 1616.0, 1617.0, 1617.0, 1619.0, 1618.0, 1617.0, 1618.0, 1617.0, 1619.0, 1619.0, 1617.0, 1618.0, 1620.0, 1620.0, 1618.0, 1618.0, 1621.0, 1619.0, 1618.0, 1617.0, 1619.0, 1620.0, 1618.0, 1617.0, 1618.0, 1620.0, 1621.0, 1623.0, 1622.0, 1620.0, 1620.0, 1621.0, 1620.0, 1619.0, 1619.0, 1618.0, 1622.0, 1623.0, 1620.0, 1622.0, 1624.0, 1621.0, 1618.0, 1619.0, 1621.0, 1622.0, 1620.0, 1619.0, 1619.0, 1620.0, 1620.0, 1621.0, 1621.0, 1626.0, 1628.0, 1623.0, 1622.0, 1622.0, 1624.0, 1626.0, 1625.0, 1624.0, 1623.0, 1621.0, 1619.0, 1619.0, 1619.0, 1621.0, 1620.0, 1618.0, 1619.0, 1619.0, 1619.0, 1624.0, 1625.0, 1621.0, 1619.0, 1619.0, 1620.0, 1618.0, 1618.0, 1620.0, 1621.0, 1623.0, 1621.0, 1621.0, 1621.0, 1622.0, 1623.0, 1624.0, 1621.0, 1621.0, 1621.0, 1621.0, 1622.0, 1621.0, 1620.0, 1619.0, 1620.0, 1623.0, 1624.0, 1623.0, 1624.0, 1626.0, 1625.0, 1623.0, 1620.0, 1621.0, 1620.0, 1621.0, 1625.0, 1626.0, 1621.0, 1619.0, 1623.0, 1624.0, 1621.0, 1619.0, 1618.0, 1619.0, 1623.0, 1628.0, 1628.0, 1624.0, 1620.0, 1618.0, 1616.0, 1616.0, 1619.0, 1619.0, 1621.0, 1623.0, 1621.0, 1624.0, 1627.0, 1625.0, 1622.0, 1621.0, 1621.0, 1621.0, 1627.0, 1628.0, 1623.0, 1621.0, 1622.0, 1621.0, 1623.0, 1626.0, 1634.0, 1633.0, 1625.0, 1619.0, 1618.0, 1618.0]
    },
    "slices": {}
  }
}