{
  "AcquisitionMatrixPE": 64,
  "AcquisitionNumber": 1,
  "AcquisitionTime": "10:00:34.872500",
  "BandwidthPerPixelPhaseEncode": 33.967,
  "BaseResolution": 64,
  "CoilCombinationMethod": "Sum of Squares",
  "CoilString": "C:HEA;HEP",
  "ConversionSoftware": "dcm2niix",
  "ConversionSoftwareVersion": "v1.0.20220720",
  "DerivedVendorReportedEchoSpacing": 0.000460005,
  "DeviceSerialNumber": "35193",
  "DwellTime": 3.1e-06,
  "EchoTime": 0.03,
  "EffectiveEchoSpacing": 0.000460005,
  "FlipAngle": 90,
  "HeudiconvVersion": "1.1.6",
  "ImageOrientationPatientDICOM": [0.996808, -0.0471065, -0.0644607, 0.0470083, 0.99889, -0.00303989],
  "ImageOrientationText": "Tra>Sag(-3.7)",
  "ImageType": [
    "ORIGINAL",
    "PRIMARY",
    "M",
    "ND",
    "MOSAIC"
],
  "ImagingFrequency": 123.254,
  "InPlanePhaseEncodingDirectionDICOM": "COL",
  "InstitutionAddress": "Xinjiekouwai Street No 19,Beijing,Haidian District,CN,100875",
  "InstitutionName": "BNU MRI Center",
  "InstitutionalDepartmentName": "Department",
  "MRAcquisitionType": "2D",
  "MagneticFieldStrength": 3,
  "Manufacturer": "Siemens",
  "ManufacturersModelName": "TrioTim",
  "MatrixCoilMode": "SENSE",
  "Modality": "MR",
  "NonlinearGradientCorrection": false,
  "PartialFourier": 1,
  "PatientPosition": "HFS",
  "PercentPhaseFOV": 100,
  "PercentSampling": 100,
  "PhaseEncodingDirection": "j-",
  "PhaseEncodingSteps": 64,
  "PhaseResolution": 1,
  "PixelBandwidth": 2520,
  "ProcedureStepDescription": "BNU_cst_2015^Guo.TaoMei",
  "ProtocolName": "ge_func_3x3x4_164",
  "PulseSequenceDetails": "%SiemensSeq%\\ep2d_bold",
  "ReceiveCoilName": "HeadMatrix",
  "ReconMatrixPE": 64,
  "RepetitionTime": 2,
  "SAR": 0.122984,
  "ScanOptions": "FS",
  "ScanningSequence": "EP",
  "SequenceName": "*epfid2d1_64",
  "SequenceVariant": "SK",
  "SeriesDescription": "ge_func_3x3x4_164",
  "SeriesNumber": 4,
  "ShimSetting": [-4523, -19450, -9798, 1115, -262, -377, 70, 110],
  "SliceThickness": 4,
  "SliceTiming": [0, 1.035, 0.06, 1.095, 0.1225, 1.155, 0.1825, 1.2175, 0.2425, 1.2775, 0.305, 1.3375, 0.365, 1.4, 0.425, 1.46, 0.4875, 1.52, 0.5475, 1.5825, 0.6075, 1.6425, 0.67, 1.7025, 0.73, 1.765, 0.79, 1.825, 0.8525, 1.885, 0.9125, 1.9475, 0.9725],
  "SoftwareVersions": "syngo MR B17",
  "SpacingBetweenSlices": 4.6,
  "StationName": "MRC35193",
  "TaskName": "CognitiveControl",
  "TotalReadoutTime": 0.0289803,
  "TxRefAmp": 335.492,
  "dcmmeta_affine": [
    [-3.1150243282318115, 0.14690083265304565, -0.2968486249446869, 87.05715942382812],
    [0.14720766246318817, 3.121530771255493, 9.62697588313688e-10, -78.53834533691406],
    [-0.20143958926200867, 0.009499650448560715, 4.59041166305542, -50.42754364013672],
    [0.0, 0.0, 0.0, 1.0]
],
  "dcmmeta_reorient_transform": [
    [0.0, -1.0, 0.0, 63.0],
    [1.0, 0.0, 0.0, 0.0],
    [0.0, 0.0, 1.0, 0.0],
    [0.0, 0.0, 0.0, 1.0]
],
  "dcmmeta_shape": [64, 64, 33, 164],
  "dcmmeta_slice_dim": 2,
  "dcmmeta_version": 0.6,
  "global": {
    "const": {
      "AcquisitionMatrix": [64, 0, 0, 64],
      "AngioFlag": "N",
      "BitsAllocated": 16,
      "BitsStored": 12,
      "Columns": 384,
      "EchoNumbers": 1,
      "EchoTime": 30.0,
      "EchoTrainLength": 1,
      "FlipAngle": 90.0,
      "HighBit": 11,
      "ImageOrientationPatient": [0.9968078069774, -0.0471064540895, -0.0644606696523, 0.04700826626981, 0.99888987480258, -0.003039888023],
      "ImagePositionPatient": [-618.21994466091, -594.00981072863, -16.078786030807],
      "ImageType": [
        "ORIGINAL",
        "PRIMARY",
        "M",
        "ND",
        "MOSAIC"
],
      "ImagedNucleus": "1H",
      "ImagingFrequency": 123.253627,
      "InPlanePhaseEncodingDirection": "COL",
      "MRAcquisitionType": "2D",
      "MagneticFieldStrength": 3.0,
      "Manufacturer": "SIEMENS",
      "ManufacturerModelName": "TrioTim",
      "Modality": "MR",
      "NumberOfAverages": 1.0,
      "NumberOfPhaseEncodingSteps": 64,
      "PercentPhaseFieldOfView": 100.0,
      "PercentSampling": 100.0,
      "PerformedProcedureStepStartTime": "094503.843000",
      "PhotometricInterpretation": "MONOCHROME2",
      "PixelBandwidth": 2520.0,
      "PixelRepresentation": 0,
      "PixelSpacing": [3.125, 3.125],
      "ProtocolName": "ge_func_3x3x4_164",
      "RepetitionTime": 2000.0,
      "Rows": 384,
      "SAR": 0.12298397841859,
      "SamplesPerPixel": 1,
      "ScanOptions": "FS",
      "ScanningSequence": "EP",
      "SequenceName": "*epfid2d1_64",
      "SequenceVariant": "SK",
      "SeriesDescription": "ge_func_3x3x4_164",
      "SeriesNumber": 4,
      "SeriesTime": "100131.343000",
      "SliceLocation": -55.940431820146,
      "SliceThickness": 4.0,
      "SmallestImagePixelValue": 0,
      "SoftwareVersions": "syngo MR B17",
      "SpacingBetweenSlices": 4.599999938792,
      "SpecificCharacterSet": "ISO_IR 100",
      "StudyID": "1",
      "StudyTime": "094502.375000",
      "TransmitCoilName": "Body",
      "VariableFlipAngleFlag": "N",
      "WindowCenterWidthExplanation": "Algo1",
      "dBdt": 0.0},
    "slices": {}
  },
  "time": {
    "samples": {
      "AcquisitionNumber": [1, 2, 3, 4, 5, 6, 7, 8, 9, 10, 11, 12, 13, 14, 15, 16, 17, 18, 19, 20, 21, 22, 23, 24, 25, 26, 27, 28, 29, 30, 31, 32, 33, 34, 35, 36, 37, 38, 39, 40, 41, 42, 43, 44, 45, 46, 47, 48, 49, 50, 51, 52, 53, 54, 55, 56, 57, 58, 59, 60, 61, 62, 63, 64, 65, 66, 67, 68, 69, 70, 71, 72, 73, 74, 75, 76, 77, 78, 79, 80, 81, 82, 83, 84, 85, 86, 87, 88, 89, 90, 91, 92, 93, 94, 95, 96, 97, 98, 99, 100, 101, 102, 103, 104, 105, 106, 107, 108, 109, 110, 111, 112, 113, 114, 115, 116, 117, 118, 119, 120, 121, 122, 123, 124, 125, 126, 127, 128, 129, 130, 131, 132, 133, 134, 135, 136, 137, 138, 139, 140, 141, 142, 143, 144, 145, 146, 147, 148, 149, 150, 151, 152, 153, 154, 155, 156, 157, 158, 159, 160, 161, 162, 163, 164],
      "AcquisitionTime": ["100034.872500", "100036.880000", "100038.887500", "100040.897500", "100042.905000", "100044.912500", "100046.920000", "100048.927500", "100050.937500", "100052.945000", "100054.952500", "100056.960000", "100058.970000", "100100.977500", "100102.985000", "100104.992500", "100107.000000", "100109.010000", "100111.017500", "100113.025000", "100115.032500", "100117.040000", "100119.050000", "100121.057500", "100123.065000", "100125.072500", "100127.082500", "100129.090000", "100131.097500", "100133.105000", "100135.112500", "100137.122500", "100139.130000", "100141.137500", "100143.145000", "100145.152500", "100147.162500", "100149.170000", "100151.177500", "100153.185000", "100155.192500", "100157.202500", "100159.210000", "100201.217500", "100203.225000", "100205.235000", "100207.242500", "100209.250000", "100211.257500", "100213.265000", "100215.275000", "100217.282500", "100219.290000", "100221.297500", "100223.305000", "100225.315000", "100227.322500", "100229.330000", "100231.337500", "100233.347500", "100235.355000", "100237.362500", "100239.370000", "100241.377500", "100243.387500", "100245.395000", "100247.402500", "100249.410000", "100251.417500", "100253.427500", "100255.435000", "100257.442500", "100259.450000", "100301.460000", "100303.467500", "100305.475000", "100307.482500", "100309.490000", "100311.500000", "100313.507500", "100315.515000", "100317.522500", "100319.530000", "100321.540000", "100323.547500", "100325.555000", "100327.562500", "100329.570000", "100331.580000", "100333.587500", "100335.595000", "100337.602500", "100339.612500", "100341.620000", "100343.627500", "100345.635000", "100347.642500", "100349.652500", "100351.660000", "100353.667500", "100355.675000", "100357.682500", "100359.692500", "100401.700000", "100403.707500", "100405.715000", "100407.725000", "100409.732500", "100411.740000", "100413.747500", "100415.755000", "100417.765000", "100419.772500", "100421.780000", "100423.787500", "100425.795000", "100427.805000", "100429.812500", "100431.820000", "100433.827500", "100435.837500", "100437.845000", "100439.852500", "100441.860000", "100443.867500", "100445.877500", "100447.885000", "100449.892500", "100451.900000", "100453.907500", "100455.917500", "100457.925000", "100459.932500", "100501.940000", "100503.950000", "100505.957500", "100507.965000", "100509.972500", "100511.980000", "100513.990000", "100515.997500", "100518.005000", "100520.012500", "100522.020000", "100524.030000", "100526.037500", "100528.045000", "100530.052500", "100532.060000", "100534.070000", "100536.077500", "100538.085000", "100540.092500", "100542.102500", "100544.110000", "100546.117500", "100548.125000", "100550.132500", "100552.142500", "100554.150000", "100556.157500", "100558.165000", "100600.172500", "100602.182500"],
      "ContentTime": ["100131.343000", "100131.343000", "100131.359000", "100131.359000", "100131.359000", "100131.359000", "100131.359000", "100131.359000", "100131.359000", "100131.359000", "100131.375000", "100131.375000", "100131.375000", "100131.375000", "100131.375000", "100131.375000", "100131.375000", "100131.390000", "100131.390000", "100131.390000", "100131.406000", "100131.406000", "100131.406000", "100131.406000", "100131.421000", "100131.421000", "100131.421000", "100211.343000", "100211.343000", "100211.343000", "100211.343000", "100211.359000", "100211.359000", "100211.359000", "100211.359000", "100211.359000", "100211.359000", "100211.375000", "100211.375000", "100211.375000", "100211.375000", "100211.375000", "100211.375000", "100211.375000", "100211.375000", "100211.390000", "100211.390000", "100251.343000", "100251.343000", "100251.343000", "100251.343000", "100251.343000", "100251.343000", "100251.359000", "100251.359000", "100251.359000", "100251.359000", "100251.375000", "100251.375000", "100251.375000", "100251.375000", "100251.375000", "100251.375000", "100251.375000", "100251.375000", "100251.390000", "100251.390000", "100331.343000", "100331.343000", "100331.343000", "100331.343000", "100331.343000", "100331.343000", "100331.359000", "100331.359000", "100331.359000", "100331.359000", "100331.359000", "100331.359000", "100331.359000", "100331.359000", "100331.375000", "100331.375000", "100331.375000", "100331.375000", "100331.375000", "100331.375000", "100411.343000", "100411.343000", "100411.343000", "100411.359000", "100411.359000", "100411.359000", "100411.359000", "100411.375000", "100411.375000", "100411.375000", "100411.375000", "100411.375000", "100411.375000", "100411.390000", "100411.390000", "100411.390000", "100411.390000", "100411.390000", "100411.390000", "100411.390000", "100451.343000", "100451.343000", "100451.343000", "100451.359000", "100451.359000", "100451.359000", "100451.359000", "100451.359000", "100451.359000", "100451.359000", "100451.359000", "100451.375000", "100451.375000", "100451.375000", "100451.375000", "100451.375000", "100451.375000", "100451.375000", "100451.375000", "100451.390000", "100531.343000", "100531.343000", "100531.343000", "100531.343000", "100531.343000", "100531.359000", "100531.359000", "100531.359000", "100531.359000", "100531.359000", "100531.359000", "100531.375000", "100531.375000", "100531.375000", "100531.375000", "100531.375000", "100531.375000", "100531.390000", "100531.390000", "100531.390000", "100604.015000", "100604.015000", "100604.015000", "100604.015000", "100604.031000", "100604.031000", "100604.031000", "100604.031000", "100604.031000", "100604.046000", "100604.046000", "100604.046000", "100604.046000", "100604.046000", "100604.046000", "100604.046000", "100604.046000"],
      "InstanceCreationTime": ["100131.343000", "100131.343000", "100131.359000", "100131.359000", "100131.359000", "100131.359000", "100131.359000", "100131.359000", "100131.359000", "100131.359000", "100131.375000", "100131.375000", "100131.375000", "100131.375000", "100131.375000", "100131.375000", "100131.375000", "100131.390000", "100131.390000", "100131.390000", "100131.406000", "100131.406000", "100131.406000", "100131.406000", "100131.421000", "100131.421000", "100131.421000", "100211.343000", "100211.343000", "100211.343000", "100211.343000", "100211.359000", "100211.359000", "100211.359000", "100211.359000", "100211.359000", "100211.359000", "100211.375000", "100211.375000", "100211.375000", "100211.375000", "100211.375000", "100211.375000", "100211.375000", "100211.375000", "100211.390000", "100211.390000", "100251.343000", "100251.343000", "100251.343000", "100251.343000", "100251.343000", "100251.343000", "100251.359000", "100251.359000", "100251.359000", "100251.359000", "100251.375000", "100251.375000", "100251.375000", "100251.375000", "100251.375000", "100251.375000", "100251.375000", "100251.375000", "100251.390000", "100251.390000", "100331.343000", "100331.343000", "100331.343000", "100331.343000", "100331.343000", "100331.343000", "100331.359000", "100331.359000", "100331.359000", "100331.359000", "100331.359000", "100331.359000", "100331.359000", "100331.359000", "100331.375000", "100331.375000", "100331.375000", "100331.375000", "100331.375000", "100331.375000", "100411.343000", "100411.343000", "100411.343000", "100411.359000", "100411.359000", "100411.359000", "100411.359000", "100411.375000", "100411.375000", "100411.375000", "100411.375000", "100411.375000", "100411.375000", "100411.390000", "100411.390000", "100411.390000", "100411.390000", "100411.390000", "100411.390000", "100411.390000", "100451.343000", "100451.343000", "100451.343000", "100451.359000", "100451.359000", "100451.359000", "100451.359000", "100451.359000", "100451.359000", "100451.359000", "100451.359000", "100451.375000", "100451.375000", "100451.375000", "100451.375000", "100451.375000", "100451.375000", "100451.375000", "100451.375000", "100451.390000", "100531.343000", "100531.343000", "100531.343000", "100531.343000", "100531.343000", "100531.359000", "100531.359000", "100531.359000", "100531.359000", "100531.359000", "100531.359000", "100531.375000", "100531.375000", "100531.375000", "100531.375000", "100531.375000", "100531.375000", "100531.390000", "100531.390000", "100531.390000", "100604.015000", "100604.015000", "100604.015000", "100604.015000", "100604.031000", "100604.031000", "100604.031000", "100604.031000", "100604.031000", "100604.046000", "100604.046000", "100604.046000", "100604.046000", "100604.046000", "100604.046000", "100604.046000", "100604.046000"],
      "InstanceNumber": [1, 2, 3, 4, 5, 6, 7, 8, 9, 10, 11, 12, 13, 14, 15, 16, 17, 18, 19, 20, 21, 22, 23, 24, 25, 26, 27, 28, 29, 30, 31, 32, 33, 34, 35, 36, 37, 38, 39, 40, 41, 42, 43, 44, 45, 46, 47, 48, 49, 50, 51, 52, 53, 54, 55, 56, 57, 58, 59, 60, 61, 62, 63, 64, 65, 66, 67, 68, 69, 70, 71, 72, 73, 74, 75, 76, 77, 78, 79, 80, 81, 82, 83, 84, 85, 86, 87, 88, 89, 90, 91, 92, 93, 94, 95, 96, 97, 98, 99, 100, 101, 102, 103, 104, 105, 106, 107, 108, 109, 110, 111, 112, 113, 114, 115, 116, 117, 118, 119, 120, 121, 122, 123, 124, 125, 126, 127, 128, 129, 130, 131, 132, 133, 134, 135, 136, 137, 138, 139, 140, 141, 142, 143, 144, 145, 146, 147, 148, 149, 150, 151, 152, 153, 154, 155, 156, 157, 158, 159, 160, 161, 162, 163, 164],
      "LargestImagePixelValue": [2124, 2042, 2037, 2000, 2026, 2011, 2027, 1999, 2011, 2008, 2028, 1992, 2018, 2006, 2032, 1997, 2034, 1996, 2014, 2010, 1989, 2026, 2004, 2021, 1981, 1994, 2001, 1970, 2007, 1978, 2011, 1981, 2011, 2008, 1989, 1998, 1974, 2004, 1992, 2017, 1986, 2003, 1990, 1988, 1995, 1968, 1993, 1964, 1990, 1982, 1973, 1989, 1973, 1993, 1976, 2002, 1967, 1990, 1968, 1989, 1974, 1997, 1964, 1972, 1974, 1994, 1980, 1978, 1973, 1978, 1988, 1979, 1971, 1983, 1983, 1971, 1972, 1965, 1975, 1966, 1979, 1972, 1971, 1968, 1973, 1966, 1969, 1965, 1978, 1969, 1979, 1984, 1980, 1987, 1975, 1982, 1971, 1982, 1967, 1985, 1961, 1979, 1973, 1977, 1967, 1970, 1977, 1987, 1974, 1975, 1977, 1977, 1969, 1983, 1980, 1972, 1976, 1985, 1986, 1979, 1981, 1972, 1968, 1968, 1963, 1968, 1969, 1972, 1983, 1978, 1971, 1983, 1973, 1979, 1962, 1968, 1980, 1976, 1981, 1963, 1988, 1970, 1988, 1977, 1984, 1976, 1977, 1986, 1966, 1974, 1978, 1975, 1977, 1969, 1975, 1983, 1980, 1991, 1982, 1985, 1982, 1982, 1971, 1986],
      "WindowCenter": [751.0, 749.0, 749.0, 748.0, 748.0, 747.0, 747.0, 747.0, 747.0, 747.0, 748.0, 748.0, 748.0, 747.0, 747.0, 747.0, 748.0, 747.0, 747.0, 749.0, 748.0, 748.0, 748.0, 747.0, 747.0, 747.0, 748.0, 748.0, 748.0, 748.0, 748.0, 748.0, 748.0, 748.0, 748.0, 748.0, 749.0, 749.0, 749.0, 749.0, 749.0, 749.0, 748.0, 749.0, 749.0, 749.0, 749.0, 748.0, 748.0, 748.0, 748.0, 748.0, 747.0, 747.0, 747.0, 747.0, 747.0, 747.0, 747.0, 747.0, 748.0, 748.0, 748.0, 748.0, 749.0, 749.0, 749.0, 749.0, 748.0, 748.0, 749.0, 750.0, 749.0, 749.0, 749.0, 748.0, 748.0, 747.0, 746.0, 747.0, 748.0, 748.0, 747.0, 747.0, 748.0, 749.0, 749.0, 748.0, 748.0, 748.0, 749.0, 749.0, 750.0, 750.0, 750.0, 750.0, 750.0, 749.0, 749.0, 749.0, 749.0, 749.0, 750.0, 751.0, 751.0, 751.0, 750.0, 749.0, 749.0, 749.0, 748.0, 748.0, 748.0, 748.0, 748.0, 749.0, 749.0, 748.0, 749.0, 750.0, 751.0, 751.0, 750.0, 750.0, 749.0, 749.0, 749.0, 749.0, 750.0, 750.0, 750.0, 750.0, 749.0, 749.0, 749.0, 750.0, 750.0, 750.0, 749.0, 749.0, 749.0, 749.0, 749.0, 750.0, 750.0, 750.0, 750.0, 750.0, 750.0, 750.0, 750.0, 749.0, 749.0, 749.0, 750.0, 750.0, 751.0, 751.0, 750.0, 749.0, 749.0, 749.0, 749.0, 749.0],
      "WindowWidth": [1678.0, 1672.0, 1672.0, 1670.0, 1669.0, 1666.0, 1666.0, 1664.0, 1664.0, 1666.0, 1668.0, 1667.0, 1669.0, 1667.0, 1668.0, 1666.0, 1668.0, 1665.0, 1667.0, 1672.0, 1670.0, 1670.0, 1667.0, 1667.0, 1666.0, 1667.0, 1668.0, 1668.0, 1669.0, 1668.0, 1670.0, 1668.0, 1669.0, 1669.0, 1668.0, 1671.0, 1670.0, 1672.0, 1672.0, 1673.0, 1671.0, 1672.0, 1670.0, 1671.0, 1673.0, 1671.0, 1671.0, 1669.0, 1670.0, 1668.0, 1668.0, 1668.0, 1667.0, 1666.0, 1665.0, 1666.0, 1666.0, 1667.0, 1665.0, 1666.0, 1667.0, 1670.0, 1669.0, 1670.0, 1671.0, 1672.0, 1671.0, 1670.0, 1669.0, 1669.0, 1673.0, 1674.0, 1671.0, 1673.0, 1670.0, 1669.0, 1668.0, 1664.0, 1663.0, 1666.0, 1668.0, 1667.0, 1667.0, 1666.0, 1669.0, 1671.0, 1672.0, 1670.0, 1670.0, 1670.0, 1671.0, 1673.0, 1674.0, 1676.0, 1675.0, 1674.0, 1673.0, 1673.0, 1672.0, 1673.0, 1672.0, 1672.0, 1674.0, 1678.0, 1678.0, 1677.0, 1675.0, 1673.0, 1671.0, 1670.0, 1670.0, 1668.0, 1668.0, 1668.0, 1669.0, 1671.0, 1671.0, 1669.0, 1671.0, 1676.0, 1679.0, 1677.0, 1676.0, 1675.0, 1672.0, 1671.0, 1672.0, 1672.0, 1674.0, 1674.0, 1675.0, 1675.0, 1671.0, 1672.0, 1672.0, 1674.0, 1673.0, 1673.0, 1672.0, 1673.0, 1671.0, 1673.0, 1673.0, 1674.0, 1676.0, 1676.0, 1676.0, 1675.0, 1673.0, 1675.0, 1674.0, 1673.0, 1672.0, 1672.0, 1674.0, 1674.0, 1677.0, 1677.0, 1675.0, 1672.0, 1671.0, 1671.0, 1671.0, 1671.0]
    },
    "slices": {}
  }
}