{
  "AcquisitionMatrixPE": 64,
  "AcquisitionNumber": 1,
  "AcquisitionTime": "10:06:51.360000",
  "BandwidthPerPixelPhaseEncode": 33.967,
  "BaseResolution": 64,
  "CoilCombinationMethod": "Sum of Squares",
  "CoilString": "C:HEA;HEP",
  "ConversionSoftware": "dcm2niix",
  "ConversionSoftwareVersion": "v1.0.20220720",
  "DerivedVendorReportedEchoSpacing": 0.000460005,
  "DeviceSerialNumber": "35193",
  "DwellTime": 3.1e-06,
  "EchoTime": 0.03,
  "EffectiveEchoSpacing": 0.000460005,
  "FlipAngle": 90,
  "HeudiconvVersion": "1.1.6",
  "ImageOrientationPatientDICOM": [0.996808, -0.0471065, -0.0644607, 0.0470083, 0.99889, -0.00303989],
  "ImageOrientationText": "Tra>Sag(-3.7)",
  "ImageType": [
    "ORIGINAL",
    "PRIMARY",
    "M",
    "ND",
    "MOSAIC"
],
  "ImagingFrequency": 123.254,
  "InPlanePhaseEncodingDirectionDICOM": "COL",
  "InstitutionAddress": "Xinjiekouwai Street No 19,Beijing,Haidian District,CN,100875",
  "InstitutionName": "BNU MRI Center",
  "InstitutionalDepartmentName": "Department",
  "MRAcquisitionType": "2D",
  "MagneticFieldStrength": 3,
  "Manufacturer": "Siemens",
  "ManufacturersModelName": "TrioTim",
  "MatrixCoilMode": "SENSE",
  "Modality": "MR",
  "NonlinearGradientCorrection": false,
  "PartialFourier": 1,
  "PatientPosition": "HFS",
  "PercentPhaseFOV": 100,
  "PercentSampling": 100,
  "PhaseEncodingDirection": "j-",
  "PhaseEncodingSteps": 64,
  "PhaseResolution": 1,
  "PixelBandwidth": 2520,
  "ProcedureStepDescription": "BNU_cst_2015^Guo.TaoMei",
  "ProtocolName": "ge_func_3x3x4_164",
  "PulseSequenceDetails": "%SiemensSeq%\\ep2d_bold",
  "ReceiveCoilName": "HeadMatrix",
  "ReconMatrixPE": 64,
  "RepetitionTime": 2,
  "SAR": 0.122984,
  "ScanOptions": "FS",
  "ScanningSequence": "EP",
  "SequenceName": "*epfid2d1_64",
  "SequenceVariant": "SK",
  "SeriesDescription": "ge_func_3x3x4_164",
  "SeriesNumber": 5,
  "ShimSetting": [-4523, -19450, -9798, 1115, -262, -377, 70, 110],
  "SliceThickness": 4,
  "SliceTiming": [0, 1.035, 0.06, 1.095, 0.1225, 1.155, 0.1825, 1.2175, 0.2425, 1.2775, 0.305, 1.3375, 0.365, 1.4, 0.425, 1.46, 0.4875, 1.52, 0.5475, 1.5825, 0.6075, 1.6425, 0.67, 1.7025, 0.73, 1.765, 0.79, 1.825, 0.8525, 1.885, 0.9125, 1.9475, 0.9725],
  "SoftwareVersions": "syngo MR B17",
  "SpacingBetweenSlices": 4.6,
  "StationName": "MRC35193",
  "TaskName": "CognitiveControl",
  "TotalReadoutTime": 0.0289803,
  "TxRefAmp": 335.492,
  "dcmmeta_affine": [
    [-3.1150243282318115, 0.14690083265304565, -0.2968486249446869, 87.05715942382812],
    [0.14720766246318817, 3.121530771255493, 9.62697588313688e-10, -78.53834533691406],
    [-0.20143958926200867, 0.009499650448560715, 4.59041166305542, -50.42754364013672],
    [0.0, 0.0, 0.0, 1.0]
],
  "dcmmeta_reorient_transform": [
    [0.0, -1.0, 0.0, 63.0],
    [1.0, 0.0, 0.0, 0.0],
    [0.0, 0.0, 1.0, 0.0],
    [0.0, 0.0, 0.0, 1.0]
],
  "dcmmeta_shape": [64, 64, 33, 164],
  "dcmmeta_slice_dim": 2,
  "dcmmeta_version": 0.6,
  "global": {
    "const": {
      "AcquisitionMatrix": [64, 0, 0, 64],
      "AngioFlag": "N",
      "BitsAllocated": 16,
      "BitsStored": 12,
      "Columns": 384,
      "EchoNumbers": 1,
      "EchoTime": 30.0,
      "EchoTrainLength": 1,
      "FlipAngle": 90.0,
      "HighBit": 11,
      "ImageOrientationPatient": [0.9968078069774, -0.0471064540895, -0.0644606696523, 0.04700826626981, 0.99888987480258, -0.003039888023],
      "ImagePositionPatient": [-618.21994466091, -594.00981072863, -16.078786030807],
      "ImageType": [
        "ORIGINAL",
        "PRIMARY",
        "M",
        "ND",
        "MOSAIC"
],
      "ImagedNucleus": "1H",
      "ImagingFrequency": 123.253633,
      "InPlanePhaseEncodingDirection": "COL",
      "MRAcquisitionType": "2D",
      "MagneticFieldStrength": 3.0,
      "Manufacturer": "SIEMENS",
      "ManufacturerModelName": "TrioTim",
      "Modality": "MR",
      "NumberOfAverages": 1.0,
      "NumberOfPhaseEncodingSteps": 64,
      "PercentPhaseFieldOfView": 100.0,
      "PercentSampling": 100.0,
      "PerformedProcedureStepStartTime": "094503.843000",
      "PhotometricInterpretation": "MONOCHROME2",
      "PixelBandwidth": 2520.0,
      "PixelRepresentation": 0,
      "PixelSpacing": [3.125, 3.125],
      "ProtocolName": "ge_func_3x3x4_164",
      "RepetitionTime": 2000.0,
      "Rows": 384,
      "SAR": 0.12298397841859,
      "SamplesPerPixel": 1,
      "ScanOptions": "FS",
      "ScanningSequence": "EP",
      "SequenceName": "*epfid2d1_64",
      "SequenceVariant": "SK",
      "SeriesDescription": "ge_func_3x3x4_164",
      "SeriesNumber": 5,
      "SeriesTime": "100654.937000",
      "SliceLocation": -55.940431820146,
      "SliceThickness": 4.0,
      "SmallestImagePixelValue": 0,
      "SoftwareVersions": "syngo MR B17",
      "SpacingBetweenSlices": 4.599999938792,
      "SpecificCharacterSet": "ISO_IR 100",
      "StudyID": "1",
      "StudyTime": "094502.375000",
      "TransmitCoilName": "Body",
      "VariableFlipAngleFlag": "N",
      "WindowCenterWidthExplanation": "Algo1",
      "dBdt": 0.0},
    "slices": {}
  },
  "time": {
    "samples": {
      "AcquisitionNumber": [1, 2, 3, 4, 5, 6, 7, 8, 9, 10, 11, 12, 13, 14, 15, 16, 17, 18, 19, 20, 21, 22, 23, 24, 25, 26, 27, 28, 29, 30, 31, 32, 33, 34, 35, 36, 37, 38, 39, 40, 41, 42, 43, 44, 45, 46, 47, 48, 49, 50, 51, 52, 53, 54, 55, 56, 57, 58, 59, 60, 61, 62, 63, 64, 65, 66, 67, 68, 69, 70, 71, 72, 73, 74, 75, 76, 77, 78, 79, 80, 81, 82, 83, 84, 85, 86, 87, 88, 89, 90, 91, 92, 93, 94, 95, 96, 97, 98, 99, 100, 101, 102, 103, 104, 105, 106, 107, 108, 109, 110, 111, 112, 113, 114, 115, 116, 117, 118, 119, 120, 121, 122, 123, 124, 125, 126, 127, 128, 129, 130, 131, 132, 133, 134, 135, 136, 137, 138, 139, 140, 141, 142, 143, 144, 145, 146, 147, 148, 149, 150, 151, 152, 153, 154, 155, 156, 157, 158, 159, 160, 161, 162, 163, 164],
      "AcquisitionTime": ["100651.360000", "100653.367500", "100655.377500", "100657.385000", "100659.392500", "100701.400000", "100703.407500", "100705.417500", "100707.425000", "100709.432500", "100711.440000", "100713.447500", "100715.457500", "100717.465000", "100719.472500", "100721.480000", "100723.487500", "100725.497500", "100727.505000", "100729.512500", "100731.520000", "100733.530000", "100735.537500", "100737.545000", "100739.552500", "100741.560000", "100743.570000", "100745.577500", "100747.585000", "100749.592500", "100751.600000", "100753.610000", "100755.617500", "100757.625000", "100759.632500", "100801.642500", "100803.650000", "100805.657500", "100807.665000", "100809.672500", "100811.682500", "100813.690000", "100815.697500", "100817.705000", "100819.712500", "100821.722500", "100823.730000", "100825.737500", "100827.745000", "100829.755000", "100831.762500", "100833.770000", "100835.777500", "100837.785000", "100839.795000", "100841.802500", "100843.810000", "100845.817500", "100847.825000", "100849.835000", "100851.842500", "100853.850000", "100855.857500", "100857.867500", "100859.875000", "100901.882500", "100903.890000", "100905.897500", "100907.907500", "100909.915000", "100911.922500", "100913.930000", "100915.937500", "100917.947500", "100919.955000", "100921.962500", "100923.970000", "100925.977500", "100927.987500", "100929.995000", "100932.002500", "100934.010000", "100936.020000", "100938.027500", "100940.035000", "100942.042500", "100944.050000", "100946.060000", "100948.067500", "100950.075000", "100952.082500", "100954.090000", "100956.100000", "100958.107500", "101000.115000", "101002.122500", "101004.132500", "101006.140000", "101008.147500", "101010.155000", "101012.162500", "101014.172500", "101016.180000", "101018.187500", "101020.195000", "101022.202500", "101024.212500", "101026.220000", "101028.227500", "101030.235000", "101032.245000", "101034.252500", "101036.260000", "101038.267500", "101040.275000", "101042.285000", "101044.292500", "101046.300000", "101048.307500", "101050.315000", "101052.325000", "101054.332500", "101056.340000", "101058.347500", "101100.355000", "101102.365000", "101104.372500", "101106.380000", "101108.387500", "101110.397500", "101112.405000", "101114.412500", "101116.420000", "101118.427500", "101120.437500", "101122.445000", "101124.452500", "101126.460000", "101128.467500", "101130.477500", "101132.485000", "101134.492500", "101136.500000", "101138.510000", "101140.517500", "101142.525000", "101144.532500", "101146.540000", "101148.550000", "101150.557500", "101152.565000", "101154.572500", "101156.580000", "101158.590000", "101200.597500", "101202.605000", "101204.612500", "101206.622500", "101208.630000", "101210.637500", "101212.645000", "101214.652500", "101216.662500", "101218.670000"],
      "ContentTime": ["100654.937000", "100734.937000", "100734.937000", "100734.953000", "100734.953000", "100734.953000", "100734.953000", "100734.953000", "100734.953000", "100734.953000", "100734.953000", "100734.968000", "100734.968000", "100734.968000", "100734.968000", "100734.968000", "100734.968000", "100734.968000", "100734.984000", "100734.984000", "100734.984000", "100814.937000", "100814.937000", "100814.937000", "100814.937000", "100814.937000", "100814.937000", "100814.953000", "100814.953000", "100814.953000", "100814.953000", "100814.953000", "100814.953000", "100814.953000", "100814.953000", "100814.968000", "100814.968000", "100814.968000", "100814.968000", "100814.968000", "100814.984000", "100854.937000", "100854.937000", "100854.937000", "100854.937000", "100854.937000", "100854.953000", "100854.953000", "100854.953000", "100854.953000", "100854.953000", "100854.953000", "100854.953000", "100854.953000", "100854.968000", "100854.968000", "100854.968000", "100854.968000", "100854.968000", "100854.984000", "100854.984000", "100934.937000", "100934.937000", "100934.937000", "100934.953000", "100934.953000", "100934.953000", "100934.953000", "100934.968000", "100934.968000", "100934.968000", "100934.968000", "100934.984000", "100934.984000", "100934.984000", "100934.984000", "100935.000000", "100935.000000", "100935.000000", "100935.000000", "100935.000000", "101014.937000", "101014.937000", "101014.937000", "101014.953000", "101014.953000", "101014.953000", "101014.968000", "101014.968000", "101014.968000", "101014.968000", "101014.968000", "101014.968000", "101014.984000", "101014.984000", "101014.984000", "101014.984000", "101014.984000", "101015.000000", "101015.000000", "101015.000000", "101054.937000", "101054.937000", "101054.937000", "101054.937000", "101054.937000", "101054.937000", "101054.953000", "101054.953000", "101054.953000", "101054.953000", "101054.953000", "101054.968000", "101054.968000", "101054.968000", "101054.968000", "101054.968000", "101054.968000", "101054.968000", "101054.984000", "101054.984000", "101134.937000", "101134.937000", "101134.937000", "101134.937000", "101134.937000", "101134.953000", "101134.953000", "101134.953000", "101134.968000", "101134.968000", "101134.968000", "101134.968000", "101134.968000", "101134.968000", "101134.984000", "101134.984000", "101134.984000", "101134.984000", "101134.984000", "101134.984000", "101214.937000", "101214.937000", "101214.937000", "101214.953000", "101214.953000", "101214.953000", "101214.953000", "101214.953000", "101214.953000", "101214.953000", "101214.953000", "101214.968000", "101214.968000", "101214.968000", "101214.968000", "101214.968000", "101214.968000", "101214.968000", "101214.984000", "101214.984000", "101220.218000", "101220.218000", "101220.218000"],
      "InstanceCreationTime": ["100654.937000", "100734.937000", "100734.937000", "100734.953000", "100734.953000", "100734.953000", "100734.953000", "100734.953000", "100734.953000", "100734.953000", "100734.953000", "100734.968000", "100734.968000", "100734.968000", "100734.968000", "100734.968000", "100734.968000", "100734.968000", "100734.984000", "100734.984000", "100734.984000", "100814.937000", "100814.937000", "100814.937000", "100814.937000", "100814.937000", "100814.937000", "100814.953000", "100814.953000", "100814.953000", "100814.953000", "100814.953000", "100814.953000", "100814.953000", "100814.953000", "100814.968000", "100814.968000", "100814.968000", "100814.968000", "100814.968000", "100814.984000", "100854.937000", "100854.937000", "100854.937000", "100854.937000", "100854.937000", "100854.953000", "100854.953000", "100854.953000", "100854.953000", "100854.953000", "100854.953000", "100854.953000", "100854.953000", "100854.968000", "100854.968000", "100854.968000", "100854.968000", "100854.968000", "100854.984000", "100854.984000", "100934.937000", "100934.937000", "100934.937000", "100934.953000", "100934.953000", "100934.953000", "100934.953000", "100934.968000", "100934.968000", "100934.968000", "100934.968000", "100934.984000", "100934.984000", "100934.984000", "100934.984000", "100935.000000", "100935.000000", "100935.000000", "100935.000000", "100935.000000", "101014.937000", "101014.937000", "101014.937000", "101014.953000", "101014.953000", "101014.953000", "101014.968000", "101014.968000", "101014.968000", "101014.968000", "101014.968000", "101014.968000", "101014.984000", "101014.984000", "101014.984000", "101014.984000", "101014.984000", "101015.000000", "101015.000000", "101015.000000", "101054.937000", "101054.937000", "101054.937000", "101054.937000", "101054.937000", "101054.937000", "101054.953000", "101054.953000", "101054.953000", "101054.953000", "101054.953000", "101054.968000", "101054.968000", "101054.968000", "101054.968000", "101054.968000", "101054.968000", "101054.968000", "101054.984000", "101054.984000", "101134.937000", "101134.937000", "101134.937000", "101134.937000", "101134.937000", "101134.953000", "101134.953000", "101134.953000", "101134.968000", "101134.968000", "101134.968000", "101134.968000", "101134.968000", "101134.968000", "101134.984000", "101134.984000", "101134.984000", "101134.984000", "101134.984000", "101134.984000", "101214.937000", "101214.937000", "101214.937000", "101214.953000", "101214.953000", "101214.953000", "101214.953000", "101214.953000", "101214.953000", "101214.953000", "101214.953000", "101214.968000", "101214.968000", "101214.968000", "101214.968000", "101214.968000", "101214.968000", "101214.968000", "101214.984000", "101214.984000", "101220.218000", "101220.218000", "101220.218000"],
      "InstanceNumber": [1, 2, 3, 4, 5, 6, 7, 8, 9, 10, 11, 12, 13, 14, 15, 16, 17, 18, 19, 20, 21, 22, 23, 24, 25, 26, 27, 28, 29, 30, 31, 32, 33, 34, 35, 36, 37, 38, 39, 40, 41, 42, 43, 44, 45, 46, 47, 48, 49, 50, 51, 52, 53, 54, 55, 56, 57, 58, 59, 60, 61, 62, 63, 64, 65, 66, 67, 68, 69, 70, 71, 72, 73, 74, 75, 76, 77, 78, 79, 80, 81, 82, 83, 84, 85, 86, 87, 88, 89, 90, 91, 92, 93, 94, 95, 96, 97, 98, 99, 100, 101, 102, 103, 104, 105, 106, 107, 108, 109, 110, 111, 112, 113, 114, 115, 116, 117, 118, 119, 120, 121, 122, 123, 124, 125, 126, 127, 128, 129, 130, 131, 132, 133, 134, 135, 136, 137, 138, 139, 140, 141, 142, 143, 144, 145, 146, 147, 148, 149, 150, 151, 152, 153, 154, 155, 156, 157, 158, 159, 160, 161, 162, 163, 164],
      "LargestImagePixelValue": [2085, 2018, 2004, 1992, 1979, 1975, 1973, 1973, 1973, 1989, 1989, 1984, 1977, 1987, 1979, 1975, 1980, 1986, 1987, 1992, 1984, 1980, 1985, 1983, 1981, 1985, 1988, 1970, 2004, 1992, 1991, 1981, 1977, 1991, 1974, 1990, 1976, 1994, 1993, 1996, 1978, 1989, 1990, 1987, 1984, 1983, 1980, 1974, 1971, 1984, 1980, 1999, 1985, 1984, 1988, 2012, 1984, 1984, 1990, 1989, 1981, 1967, 1976, 1996, 1981, 1982, 1983, 1991, 1981, 1979, 1982, 1983, 1981, 1984, 1978, 1984, 1986, 1991, 1990, 1985, 1986, 1990, 1981, 1989, 1992, 1992, 1990, 1980, 1987, 1992, 1982, 1989, 1981, 1990, 1979, 1995, 1988, 1996, 1999, 2000, 1993, 1984, 1985, 2000, 1993, 2010, 1993, 1986, 1987, 1980, 2007, 1991, 1999, 1991, 1981, 1987, 1981, 1984, 1977, 1979, 1979, 1987, 1992, 1996, 1981, 1992, 1986, 1984, 1993, 1999, 1989, 2010, 1989, 1995, 1987, 2004, 1992, 1995, 1987, 1995, 1986, 1991, 1998, 2001, 1978, 1989, 1982, 1986, 1989, 2000, 1992, 1992, 1986, 1995, 1986, 1989, 1989, 1989, 2004, 1998, 2004, 1998, 1987, 1980],
      "WindowCenter": [751.0, 749.0, 748.0, 748.0, 747.0, 747.0, 747.0, 747.0, 747.0, 747.0, 748.0, 748.0, 748.0, 748.0, 748.0, 748.0, 748.0, 748.0, 749.0, 749.0, 749.0, 748.0, 748.0, 749.0, 748.0, 748.0, 748.0, 748.0, 749.0, 750.0, 750.0, 749.0, 748.0, 749.0, 749.0, 750.0, 749.0, 749.0, 749.0, 749.0, 749.0, 749.0, 750.0, 749.0, 749.0, 749.0, 749.0, 748.0, 748.0, 748.0, 749.0, 749.0, 750.0, 750.0, 749.0, 749.0, 749.0, 748.0, 749.0, 750.0, 750.0, 749.0, 749.0, 749.0, 749.0, 749.0, 748.0, 748.0, 748.0, 748.0, 748.0, 749.0, 749.0, 748.0, 748.0, 749.0, 748.0, 748.0, 748.0, 748.0, 748.0, 748.0, 748.0, 748.0, 748.0, 749.0, 749.0, 749.0, 749.0, 749.0, 749.0, 749.0, 749.0, 749.0, 750.0, 750.0, 750.0, 750.0, 750.0, 750.0, 750.0, 750.0, 750.0, 750.0, 750.0, 750.0, 750.0, 750.0, 750.0, 749.0, 749.0, 749.0, 750.0, 750.0, 750.0, 749.0, 749.0, 748.0, 748.0, 748.0, 749.0, 749.0, 750.0, 750.0, 750.0, 750.0, 750.0, 750.0, 750.0, 751.0, 751.0, 751.0, 750.0, 750.0, 751.0, 751.0, 751.0, 751.0, 751.0, 751.0, 750.0, 750.0, 750.0, 751.0, 751.0, 751.0, 750.0, 750.0, 750.0, 750.0, 750.0, 750.0, 749.0, 749.0, 750.0, 749.0, 749.0, 749.0, 750.0, 750.0, 749.0, 750.0, 750.0, 749.0],
      "WindowWidth": [1678.0, 1670.0, 1670.0, 1668.0, 1666.0, 1664.0, 1665.0, 1665.0, 1664.0, 1666.0, 1668.0, 1669.0, 1668.0, 1667.0, 1668.0, 1668.0, 1668.0, 1669.0, 1670.0, 1671.0, 1671.0, 1669.0, 1669.0, 1669.0, 1669.0, 1668.0, 1669.0, 1669.0, 1672.0, 1677.0, 1676.0, 1671.0, 1669.0, 1672.0, 1672.0, 1674.0, 1672.0, 1671.0, 1671.0, 1672.0, 1672.0, 1673.0, 1673.0, 1672.0, 1671.0, 1671.0, 1670.0, 1670.0, 1668.0, 1668.0, 1670.0, 1673.0, 1673.0, 1673.0, 1672.0, 1671.0, 1670.0, 1668.0, 1673.0, 1676.0, 1675.0, 1670.0, 1671.0, 1671.0, 1671.0, 1671.0, 1670.0, 1669.0, 1668.0, 1668.0, 1669.0, 1671.0, 1670.0, 1669.0, 1669.0, 1670.0, 1669.0, 1669.0, 1669.0, 1669.0, 1670.0, 1670.0, 1667.0, 1667.0, 1668.0, 1672.0, 1672.0, 1672.0, 1671.0, 1672.0, 1671.0, 1671.0, 1672.0, 1673.0, 1673.0, 1673.0, 1674.0, 1676.0, 1674.0, 1673.0, 1674.0, 1674.0, 1675.0, 1676.0, 1674.0, 1675.0, 1675.0, 1674.0, 1673.0, 1672.0, 1671.0, 1673.0, 1673.0, 1675.0, 1673.0, 1672.0, 1670.0, 1670.0, 1669.0, 1669.0, 1671.0, 1672.0, 1673.0, 1675.0, 1674.0, 1675.0, 1674.0, 1674.0, 1675.0, 1678.0, 1678.0, 1677.0, 1675.0, 1676.0, 1677.0, 1679.0, 1678.0, 1678.0, 1677.0, 1677.0, 1675.0, 1674.0, 1676.0, 1677.0, 1677.0, 1677.0, 1675.0, 1674.0, 1673.0, 1674.0, 1674.0, 1673.0, 1671.0, 1672.0, 1673.0, 1672.0, 1671.0, 1671.0, 1673.0, 1673.0, 1672.0, 1673.0, 1674.0, 1672.0]
    },
    "slices": {}
  }
}