{
  "AcquisitionMatrixPE": 64,
  "AcquisitionNumber": 1,
  "AcquisitionTime": "11:11:13.645000",
  "BandwidthPerPixelPhaseEncode": 33.967,
  "BaseResolution": 64,
  "CoilCombinationMethod": "Sum of Squares",
  "CoilString": "C:HEA;HEP",
  "ConversionSoftware": "dcm2niix",
  "ConversionSoftwareVersion": "v1.0.20220720",
  "DerivedVendorReportedEchoSpacing": 0.000460005,
  "DeviceSerialNumber": "35193",
  "DwellTime": 3.1e-06,
  "EchoTime": 0.03,
  "EffectiveEchoSpacing": 0.000460005,
  "FlipAngle": 90,
  "HeudiconvVersion": "1.1.6",
  "ImageOrientationPatientDICOM": [0.998921, 0.026177, -0.0383747, -0.0261577, 0.999657, 0.00100488],
  "ImageOrientationText": "Tra>Sag(-2.2)",
  "ImageType": [
    "ORIGINAL",
    "PRIMARY",
    "M",
    "ND",
    "MOSAIC"
],
  "ImagingFrequency": 123.254,
  "InPlanePhaseEncodingDirectionDICOM": "COL",
  "InstitutionAddress": "Xinjiekouwai Street No 19,Beijing,Haidian District,CN,100875",
  "InstitutionName": "Beijing Normal Universtiy/4C3F54/",
  "InstitutionalDepartmentName": "Department",
  "MRAcquisitionType": "2D",
  "MagneticFieldStrength": 3,
  "Manufacturer": "Siemens",
  "ManufacturersModelName": "TrioTim",
  "MatrixCoilMode": "SENSE",
  "Modality": "MR",
  "NonlinearGradientCorrection": false,
  "PartialFourier": 1,
  "PatientPosition": "HFS",
  "PercentPhaseFOV": 100,
  "PercentSampling": 100,
  "PhaseEncodingDirection": "j-",
  "PhaseEncodingSteps": 64,
  "PhaseResolution": 1,
  "PixelBandwidth": 2520,
  "ProcedureStepDescription": "BNU_cst_2015^Guo.TaoMei",
  "ProtocolName": "ge_func_3x3x4_164",
  "PulseSequenceDetails": "%SiemensSeq%\\ep2d_bold",
  "ReceiveCoilName": "HeadMatrix",
  "ReconMatrixPE": 64,
  "RepetitionTime": 2,
  "SAR": 0.165324,
  "ScanOptions": "FS",
  "ScanningSequence": "EP",
  "SequenceName": "*epfid2d1_64",
  "SequenceVariant": "SK",
  "SeriesDescription": "ge_func_3x3x4_164",
  "SeriesNumber": 5,
  "ShimSetting": [-4516, -19389, -9853, 807, -87, -386, 262, -25],
  "SliceThickness": 4,
  "SliceTiming": [0, 1.0325, 0.06, 1.095, 0.12, 1.155, 0.1825, 1.215, 0.2425, 1.2775, 0.3025, 1.3375, 0.365, 1.3975, 0.425, 1.46, 0.485, 1.52, 0.5475, 1.58, 0.6075, 1.6425, 0.6675, 1.7025, 0.73, 1.7625, 0.79, 1.825, 0.85, 1.885, 0.9125, 1.945, 0.9725],
  "SoftwareVersions": "syngo MR B17",
  "SpacingBetweenSlices": 4.6,
  "StationName": "MRC35193",
  "TaskName": "LanguageControl",
  "TotalReadoutTime": 0.0289803,
  "TxRefAmp": 358.706,
  "dcmmeta_affine": [
    [-3.121626615524292, -0.08174268901348114, -0.1765839159488678, 108.62490844726562],
    [-0.08180297911167145, 3.123929023742676, -4.926504759694694e-10, -84.77832794189453],
    [-0.11992079019546509, -0.0031402367167174816, 4.596609592437744, -77.70732116699219],
    [0.0, 0.0, 0.0, 1.0]
],
  "dcmmeta_reorient_transform": [
    [0.0, -1.0, 0.0, 63.0],
    [1.0, 0.0, 0.0, 0.0],
    [0.0, 0.0, 1.0, 0.0],
    [0.0, 0.0, 0.0, 1.0]
],
  "dcmmeta_shape": [64, 64, 33, 164],
  "dcmmeta_slice_dim": 2,
  "dcmmeta_version": 0.6,
  "global": {
    "const": {
      "AcquisitionMatrix": [64, 0, 0, 64],
      "AngioFlag": "N",
      "BitsAllocated": 16,
      "BitsStored": 12,
      "Columns": 384,
      "EchoNumbers": 1,
      "EchoTime": 30.0,
      "EchoTrainLength": 1,
      "FlipAngle": 90.0,
      "HighBit": 11,
      "ImageOrientationPatient": [0.99892049387108, 0.02617695420928, -0.0383746529975, -0.0261576596116, 0.99965732482102, 0.00100487577328],
      "ImagePositionPatient": [-589.85653735914, -624.94635007962, -59.220269285563],
      "ImageType": [
        "ORIGINAL",
        "PRIMARY",
        "M",
        "ND",
        "MOSAIC"
],
      "ImagedNucleus": "1H",
      "ImagingFrequency": 123.253688,
      "InPlanePhaseEncodingDirection": "COL",
      "MRAcquisitionType": "2D",
      "MagneticFieldStrength": 3.0,
      "Manufacturer": "SIEMENS",
      "ManufacturerModelName": "TrioTim",
      "Modality": "MR",
      "NumberOfAverages": 1.0,
      "NumberOfPhaseEncodingSteps": 64,
      "PercentPhaseFieldOfView": 100.0,
      "PercentSampling": 100.0,
      "PerformedProcedureStepStartTime": "104953.203000",
      "PhotometricInterpretation": "MONOCHROME2",
      "PixelBandwidth": 2520.0,
      "PixelRepresentation": 0,
      "PixelSpacing": [3.125, 3.125],
      "ProtocolName": "ge_func_3x3x4_164",
      "RepetitionTime": 2000.0,
      "Rows": 384,
      "SAR": 0.16532371944218,
      "SamplesPerPixel": 1,
      "ScanOptions": "FS",
      "ScanningSequence": "EP",
      "SequenceName": "*epfid2d1_64",
      "SequenceVariant": "SK",
      "SeriesDescription": "ge_func_3x3x4_164",
      "SeriesNumber": 5,
      "SeriesTime": "111201.062000",
      "SliceLocation": -81.819918301808,
      "SliceThickness": 4.0,
      "SmallestImagePixelValue": 0,
      "SoftwareVersions": "syngo MR B17",
      "SpacingBetweenSlices": 4.5999999386369,
      "SpecificCharacterSet": "ISO_IR 100",
      "StudyID": "1",
      "StudyTime": "104953.156000",
      "TransmitCoilName": "Body",
      "VariableFlipAngleFlag": "N",
      "WindowCenterWidthExplanation": "Algo1",
      "dBdt": 0.0},
    "slices": {}
  },
  "time": {
    "samples": {
      "AcquisitionNumber": [1, 2, 3, 4, 5, 6, 7, 8, 9, 10, 11, 12, 13, 14, 15, 16, 17, 18, 19, 20, 21, 22, 23, 24, 25, 26, 27, 28, 29, 30, 31, 32, 33, 34, 35, 36, 37, 38, 39, 40, 41, 42, 43, 44, 45, 46, 47, 48, 49, 50, 51, 52, 53, 54, 55, 56, 57, 58, 59, 60, 61, 62, 63, 64, 65, 66, 67, 68, 69, 70, 71, 72, 73, 74, 75, 76, 77, 78, 79, 80, 81, 82, 83, 84, 85, 86, 87, 88, 89, 90, 91, 92, 93, 94, 95, 96, 97, 98, 99, 100, 101, 102, 103, 104, 105, 106, 107, 108, 109, 110, 111, 112, 113, 114, 115, 116, 117, 118, 119, 120, 121, 122, 123, 124, 125, 126, 127, 128, 129, 130, 131, 132, 133, 134, 135, 136, 137, 138, 139, 140, 141, 142, 143, 144, 145, 146, 147, 148, 149, 150, 151, 152, 153, 154, 155, 156, 157, 158, 159, 160, 161, 162, 163, 164],
      "AcquisitionTime": ["111113.645000", "111115.652500", "111117.660000", "111119.667500", "111121.677500", "111123.685000", "111125.692500", "111127.700000", "111129.707500", "111131.717500", "111133.725000", "111135.732500", "111137.740000", "111139.750000", "111141.757500", "111143.765000", "111145.772500", "111147.780000", "111149.790000", "111151.797500", "111153.805000", "111155.812500", "111157.820000", "111159.830000", "111201.837500", "111203.845000", "111205.852500", "111207.860000", "111209.870000", "111211.877500", "111213.885000", "111215.892500", "111217.902500", "111219.910000", "111221.917500", "111223.925000", "111225.932500", "111227.942500", "111229.950000", "111231.957500", "111233.965000", "111235.972500", "111237.982500", "111239.990000", "111241.997500", "111244.005000", "111246.015000", "111248.022500", "111250.030000", "111252.037500", "111254.045000", "111256.055000", "111258.062500", "111300.070000", "111302.077500", "111304.085000", "111306.095000", "111308.102500", "111310.110000", "111312.117500", "111314.127500", "111316.135000", "111318.142500", "111320.150000", "111322.157500", "111324.167500", "111326.175000", "111328.182500", "111330.190000", "111332.197500", "111334.207500", "111336.215000", "111338.222500", "111340.230000", "111342.237500", "111344.247500", "111346.255000", "111348.262500", "111350.270000", "111352.280000", "111354.287500", "111356.295000", "111358.302500", "111400.310000", "111402.320000", "111404.327500", "111406.335000", "111408.342500", "111410.350000", "111412.360000", "111414.367500", "111416.375000", "111418.382500", "111420.392500", "111422.400000", "111424.407500", "111426.415000", "111428.422500", "111430.432500", "111432.440000", "111434.447500", "111436.455000", "111438.462500", "111440.472500", "111442.480000", "111444.487500", "111446.495000", "111448.505000", "111450.512500", "111452.520000", "111454.527500", "111456.535000", "111458.545000", "111500.552500", "111502.560000", "111504.567500", "111506.575000", "111508.585000", "111510.592500", "111512.600000", "111514.607500", "111516.615000", "111518.625000", "111520.632500", "111522.640000", "111524.647500", "111526.657500", "111528.665000", "111530.672500", "111532.680000", "111534.687500", "111536.697500", "111538.705000", "111540.712500", "111542.720000", "111544.727500", "111546.737500", "111548.745000", "111550.752500", "111552.760000", "111554.770000", "111556.777500", "111558.785000", "111600.792500", "111602.800000", "111604.810000", "111606.817500", "111608.825000", "111610.832500", "111612.840000", "111614.850000", "111616.857500", "111618.865000", "111620.872500", "111622.882500", "111624.890000", "111626.897500", "111628.905000", "111630.912500", "111632.922500", "111634.930000", "111636.937500", "111638.945000", "111640.952500"],
      "ContentTime": ["111201.062000", "111201.078000", "111201.078000", "111201.078000", "111201.078000", "111201.093000", "111201.093000", "111201.093000", "111201.093000", "111201.093000", "111201.093000", "111201.109000", "111201.109000", "111201.109000", "111201.109000", "111201.109000", "111201.109000", "111201.109000", "111201.109000", "111201.125000", "111201.125000", "111201.125000", "111201.125000", "111241.062000", "111241.062000", "111241.062000", "111241.062000", "111241.078000", "111241.078000", "111241.078000", "111241.078000", "111241.078000", "111241.078000", "111241.093000", "111241.093000", "111241.093000", "111241.093000", "111241.093000", "111241.093000", "111241.093000", "111241.109000", "111241.109000", "111241.109000", "111321.062000", "111321.062000", "111321.062000", "111321.062000", "111321.078000", "111321.078000", "111321.078000", "111321.078000", "111321.078000", "111321.078000", "111321.093000", "111321.093000", "111321.093000", "111321.093000", "111321.093000", "111321.093000", "111321.109000", "111321.109000", "111321.109000", "111321.109000", "111401.062000", "111401.062000", "111401.062000", "111401.078000", "111401.078000", "111401.078000", "111401.078000", "111401.078000", "111401.093000", "111401.093000", "111401.093000", "111401.093000", "111401.093000", "111401.093000", "111401.093000", "111401.109000", "111401.109000", "111401.109000", "111401.125000", "111401.125000", "111441.062000", "111441.078000", "111441.078000", "111441.078000", "111441.093000", "111441.093000", "111441.093000", "111441.093000", "111441.093000", "111441.093000", "111441.093000", "111441.093000", "111441.109000", "111441.109000", "111441.109000", "111441.109000", "111441.109000", "111441.109000", "111441.109000", "111441.109000", "111521.062000", "111521.062000", "111521.062000", "111521.062000", "111521.078000", "111521.078000", "111521.078000", "111521.078000", "111521.078000", "111521.078000", "111521.078000", "111521.078000", "111521.093000", "111521.093000", "111521.093000", "111521.093000", "111521.093000", "111521.093000", "111521.093000", "111521.093000", "111601.062000", "111601.062000", "111601.062000", "111601.078000", "111601.078000", "111601.078000", "111601.078000", "111601.078000", "111601.078000", "111601.093000", "111601.093000", "111601.093000", "111601.093000", "111601.093000", "111601.093000", "111601.093000", "111601.093000", "111601.109000", "111601.109000", "111601.109000", "111641.062000", "111641.062000", "111641.062000", "111641.062000", "111641.078000", "111641.078000", "111641.078000", "111641.078000", "111641.078000", "111641.078000", "111641.078000", "111641.078000", "111641.093000", "111641.093000", "111641.093000", "111641.093000", "111641.109000", "111641.109000", "111641.109000", "111641.109000", "111642.000000"],
      "InstanceCreationTime": ["111201.062000", "111201.078000", "111201.078000", "111201.078000", "111201.078000", "111201.093000", "111201.093000", "111201.093000", "111201.093000", "111201.093000", "111201.093000", "111201.109000", "111201.109000", "111201.109000", "111201.109000", "111201.109000", "111201.109000", "111201.109000", "111201.109000", "111201.125000", "111201.125000", "111201.125000", "111201.125000", "111241.062000", "111241.062000", "111241.062000", "111241.062000", "111241.078000", "111241.078000", "111241.078000", "111241.078000", "111241.078000", "111241.078000", "111241.093000", "111241.093000", "111241.093000", "111241.093000", "111241.093000", "111241.093000", "111241.093000", "111241.109000", "111241.109000", "111241.109000", "111321.062000", "111321.062000", "111321.062000", "111321.062000", "111321.078000", "111321.078000", "111321.078000", "111321.078000", "111321.078000", "111321.078000", "111321.093000", "111321.093000", "111321.093000", "111321.093000", "111321.093000", "111321.093000", "111321.109000", "111321.109000", "111321.109000", "111321.109000", "111401.062000", "111401.062000", "111401.062000", "111401.078000", "111401.078000", "111401.078000", "111401.078000", "111401.078000", "111401.093000", "111401.093000", "111401.093000", "111401.093000", "111401.093000", "111401.093000", "111401.093000", "111401.109000", "111401.109000", "111401.109000", "111401.125000", "111401.125000", "111441.062000", "111441.078000", "111441.078000", "111441.078000", "111441.093000", "111441.093000", "111441.093000", "111441.093000", "111441.093000", "111441.093000", "111441.093000", "111441.093000", "111441.109000", "111441.109000", "111441.109000", "111441.109000", "111441.109000", "111441.109000", "111441.109000", "111441.109000", "111521.062000", "111521.062000", "111521.062000", "111521.062000", "111521.078000", "111521.078000", "111521.078000", "111521.078000", "111521.078000", "111521.078000", "111521.078000", "111521.078000", "111521.093000", "111521.093000", "111521.093000", "111521.093000", "111521.093000", "111521.093000", "111521.093000", "111521.093000", "111601.062000", "111601.062000", "111601.062000", "111601.078000", "111601.078000", "111601.078000", "111601.078000", "111601.078000", "111601.078000", "111601.093000", "111601.093000", "111601.093000", "111601.093000", "111601.093000", "111601.093000", "111601.093000", "111601.093000", "111601.109000", "111601.109000", "111601.109000", "111641.062000", "111641.062000", "111641.062000", "111641.062000", "111641.078000", "111641.078000", "111641.078000", "111641.078000", "111641.078000", "111641.078000", "111641.078000", "111641.078000", "111641.093000", "111641.093000", "111641.093000", "111641.093000", "111641.109000", "111641.109000", "111641.109000", "111641.109000", "111642.000000"],
      "InstanceNumber": [1, 2, 3, 4, 5, 6, 7, 8, 9, 10, 11, 12, 13, 14, 15, 16, 17, 18, 19, 20, 21, 22, 23, 24, 25, 26, 27, 28, 29, 30, 31, 32, 33, 34, 35, 36, 37, 38, 39, 40, 41, 42, 43, 44, 45, 46, 47, 48, 49, 50, 51, 52, 53, 54, 55, 56, 57, 58, 59, 60, 61, 62, 63, 64, 65, 66, 67, 68, 69, 70, 71, 72, 73, 74, 75, 76, 77, 78, 79, 80, 81, 82, 83, 84, 85, 86, 87, 88, 89, 90, 91, 92, 93, 94, 95, 96, 97, 98, 99, 100, 101, 102, 103, 104, 105, 106, 107, 108, 109, 110, 111, 112, 113, 114, 115, 116, 117, 118, 119, 120, 121, 122, 123, 124, 125, 126, 127, 128, 129, 130, 131, 132, 133, 134, 135, 136, 137, 138, 139, 140, 141, 142, 143, 144, 145, 146, 147, 148, 149, 150, 151, 152, 153, 154, 155, 156, 157, 158, 159, 160, 161, 162, 163, 164],
      "LargestImagePixelValue": [1668, 1596, 1591, 1584, 1590, 1627, 1587, 1589, 1607, 1596, 1615, 1594, 1578, 1603, 1615, 1647, 1602, 1650, 1642, 1615, 1649, 1606, 1673, 1629, 1625, 1640, 1609, 1602, 1630, 1633, 1619, 1612, 1626, 1639, 1637, 1651, 1598, 1634, 1592, 1599, 1617, 1635, 1615, 1599, 1600, 1645, 1624, 1810, 1640, 1632, 1624, 1598, 1647, 1603, 1612, 1592, 1590, 1604, 1678, 1610, 1615, 1586, 1661, 1600, 1674, 1610, 1606, 1586, 1602, 1617, 1590, 1618, 1619, 1612, 1589, 1588, 1597, 1604, 1630, 1595, 1626, 1647, 1597, 1572, 1600, 1569, 1597, 1573, 1589, 1590, 1579, 1594, 1578, 1579, 1577, 1673, 1599, 1613, 1583, 1630, 1578, 1618, 1581, 1558, 1577, 1602, 1589, 1598, 1637, 1606, 1575, 1567, 1576, 1719, 1588, 1566, 1701, 1593, 1736, 1568, 1571, 1557, 1583, 1574, 1661, 1586, 1574, 1562, 1588, 1585, 1562, 1581, 1551, 1571, 1578, 1643, 1573, 1569, 1554, 1662, 1570, 1550, 1554, 1562, 1543, 1545, 1566, 1573, 1556, 1570, 1563, 1623, 1560, 1706, 1566, 1580, 1559, 1575, 1598, 1576, 1565, 1569, 1580, 1603],
      "WindowCenter": [691.0, 688.0, 688.0, 689.0, 689.0, 688.0, 688.0, 687.0, 688.0, 688.0, 687.0, 687.0, 687.0, 686.0, 686.0, 687.0, 687.0, 687.0, 687.0, 687.0, 688.0, 687.0, 688.0, 688.0, 688.0, 688.0, 688.0, 688.0, 688.0, 689.0, 689.0, 689.0, 688.0, 687.0, 687.0, 688.0, 688.0, 689.0, 688.0, 689.0, 688.0, 689.0, 688.0, 688.0, 687.0, 687.0, 687.0, 689.0, 688.0, 688.0, 689.0, 688.0, 688.0, 688.0, 689.0, 688.0, 689.0, 688.0, 689.0, 689.0, 689.0, 688.0, 688.0, 689.0, 690.0, 688.0, 688.0, 688.0, 688.0, 689.0, 689.0, 689.0, 689.0, 689.0, 689.0, 688.0, 688.0, 688.0, 689.0, 689.0, 689.0, 689.0, 689.0, 689.0, 689.0, 688.0, 689.0, 689.0, 689.0, 689.0, 689.0, 690.0, 690.0, 690.0, 689.0, 689.0, 689.0, 688.0, 689.0, 690.0, 689.0, 689.0, 688.0, 687.0, 688.0, 688.0, 688.0, 689.0, 690.0, 689.0, 690.0, 689.0, 689.0, 691.0, 688.0, 688.0, 690.0, 689.0, 691.0, 690.0, 689.0, 689.0, 689.0, 690.0, 690.0, 689.0, 689.0, 688.0, 688.0, 688.0, 689.0, 690.0, 690.0, 689.0, 689.0, 689.0, 688.0, 688.0, 689.0, 690.0, 690.0, 690.0, 690.0, 689.0, 689.0, 688.0, 688.0, 689.0, 688.0, 688.0, 689.0, 689.0, 688.0, 689.0, 688.0, 689.0, 689.0, 689.0, 689.0, 688.0, 689.0, 689.0, 689.0, 690.0],
      "WindowWidth": [1493.0, 1487.0, 1487.0, 1488.0, 1487.0, 1486.0, 1485.0, 1484.0, 1485.0, 1485.0, 1484.0, 1485.0, 1484.0, 1482.0, 1482.0, 1482.0, 1483.0, 1483.0, 1483.0, 1484.0, 1485.0, 1484.0, 1486.0, 1485.0, 1485.0, 1486.0, 1486.0, 1484.0, 1486.0, 1487.0, 1487.0, 1488.0, 1486.0, 1483.0, 1484.0, 1487.0, 1486.0, 1487.0, 1487.0, 1487.0, 1486.0, 1487.0, 1487.0, 1485.0, 1483.0, 1485.0, 1483.0, 1489.0, 1485.0, 1487.0, 1488.0, 1485.0, 1487.0, 1487.0, 1488.0, 1487.0, 1489.0, 1487.0, 1489.0, 1489.0, 1489.0, 1486.0, 1486.0, 1487.0, 1490.0, 1485.0, 1486.0, 1487.0, 1486.0, 1488.0, 1488.0, 1488.0, 1489.0, 1489.0, 1487.0, 1485.0, 1487.0, 1487.0, 1488.0, 1489.0, 1489.0, 1488.0, 1490.0, 1490.0, 1487.0, 1487.0, 1488.0, 1488.0, 1488.0, 1489.0, 1490.0, 1491.0, 1491.0, 1491.0, 1488.0, 1489.0, 1487.0, 1487.0, 1488.0, 1491.0, 1489.0, 1489.0, 1486.0, 1484.0, 1485.0, 1486.0, 1487.0, 1489.0, 1491.0, 1489.0, 1490.0, 1488.0, 1488.0, 1492.0, 1487.0, 1486.0, 1490.0, 1488.0, 1492.0, 1490.0, 1489.0, 1487.0, 1488.0, 1490.0, 1492.0, 1489.0, 1488.0, 1486.0, 1484.0, 1487.0, 1490.0, 1491.0, 1491.0, 1490.0, 1488.0, 1489.0, 1486.0, 1487.0, 1488.0, 1492.0, 1491.0, 1490.0, 1490.0, 1489.0, 1489.0, 1486.0, 1486.0, 1487.0, 1486.0, 1486.0, 1488.0, 1489.0, 1486.0, 1490.0, 1487.0, 1489.0, 1488.0, 1488.0, 1488.0, 1487.0, 1487.0, 1488.0, 1489.0, 1490.0]
    },
    "slices": {}
  }
}