{
  "AcquisitionMatrixPE": 64,
  "AcquisitionNumber": 1,
  "AcquisitionTime": "11:23:35.987500",
  "BandwidthPerPixelPhaseEncode": 33.967,
  "BaseResolution": 64,
  "CoilCombinationMethod": "Sum of Squares",
  "CoilString": "C:HEA;HEP",
  "ConversionSoftware": "dcm2niix",
  "ConversionSoftwareVersion": "v1.0.20220720",
  "DerivedVendorReportedEchoSpacing": 0.000460005,
  "DeviceSerialNumber": "35193",
  "DwellTime": 3.1e-06,
  "EchoTime": 0.03,
  "EffectiveEchoSpacing": 0.000460005,
  "FlipAngle": 90,
  "HeudiconvVersion": "1.1.6",
  "ImageOrientationPatientDICOM": [0.999986, -0.00523597, 0, 0.00523597, 0.999986, 0],
  "ImageOrientationText": "Tra",
  "ImageType": [
    "ORIGINAL",
    "PRIMARY",
    "M",
    "ND",
    "MOSAIC"
],
  "ImagingFrequency": 123.254,
  "InPlanePhaseEncodingDirectionDICOM": "COL",
  "InstitutionAddress": "Xinjiekouwai Street No 19,Beijing,Haidian District,CN,100875",
  "InstitutionName": "BNU MRI Center",
  "InstitutionalDepartmentName": "Department",
  "MRAcquisitionType": "2D",
  "MagneticFieldStrength": 3,
  "Manufacturer": "Siemens",
  "ManufacturersModelName": "TrioTim",
  "MatrixCoilMode": "SENSE",
  "Modality": "MR",
  "NonlinearGradientCorrection": false,
  "PartialFourier": 1,
  "PatientPosition": "HFS",
  "PercentPhaseFOV": 100,
  "PercentSampling": 100,
  "PhaseEncodingDirection": "j-",
  "PhaseEncodingSteps": 64,
  "PhaseResolution": 1,
  "PixelBandwidth": 2520,
  "ProcedureStepDescription": "BNU_cst_2015^Guo.TaoMei",
  "ProtocolName": "ge_func_3x3x4_164",
  "PulseSequenceDetails": "%SiemensSeq%\\ep2d_bold",
  "ReceiveCoilName": "HeadMatrix",
  "ReconMatrixPE": 64,
  "RepetitionTime": 2,
  "SAR": 0.159832,
  "ScanOptions": "FS",
  "ScanningSequence": "EP",
  "SequenceName": "*epfid2d1_64",
  "SequenceVariant": "SK",
  "SeriesDescription": "ge_func_3x3x4_164",
  "SeriesNumber": 5,
  "ShimSetting": [-4492, -19488, -9744, 1335, -187, -351, 24, -32],
  "SliceThickness": 4,
  "SliceTiming": [0, 1.0325, 0.06, 1.095, 0.12, 1.155, 0.1825, 1.215, 0.2425, 1.2775, 0.3025, 1.3375, 0.365, 1.3975, 0.425, 1.46, 0.485, 1.52, 0.5475, 1.58, 0.6075, 1.6425, 0.6675, 1.7025, 0.73, 1.7625, 0.79, 1.825, 0.85, 1.885, 0.9125, 1.945, 0.9725],
  "SoftwareVersions": "syngo MR B17",
  "SpacingBetweenSlices": 4.6,
  "StationName": "MRC35193",
  "TaskName": "LanguageControl",
  "TotalReadoutTime": 0.0289803,
  "TxRefAmp": 337.384,
  "dcmmeta_affine": [
    [-3.1249570846557617, 0.016362404450774193, 0.0, 90.72030639648438],
    [0.016362404450774193, 3.1249570846557617, 0.0, -77.83100128173828],
    [0.0, 0.0, 4.599999904632568, -53.35903549194336],
    [0.0, 0.0, 0.0, 1.0]
],
  "dcmmeta_reorient_transform": [
    [0.0, -1.0, 0.0, 63.0],
    [1.0, 0.0, 0.0, 0.0],
    [0.0, 0.0, 1.0, 0.0],
    [0.0, 0.0, 0.0, 1.0]
],
  "dcmmeta_shape": [64, 64, 33, 164],
  "dcmmeta_slice_dim": 2,
  "dcmmeta_version": 0.6,
  "global": {
    "const": {
      "AcquisitionMatrix": [64, 0, 0, 64],
      "AngioFlag": "N",
      "BitsAllocated": 16,
      "BitsStored": 12,
      "Columns": 384,
      "EchoNumbers": 1,
      "EchoTime": 30.0,
      "EchoTrainLength": 1,
      "FlipAngle": 90.0,
      "HighBit": 11,
      "ImageOrientationPatient": [0.99998629221962, -0.0052359691413, 0.0, 0.0052359691413, 0.99998629221962, 0.0],
      "ImagePositionPatient": [-594.36227203109, -616.41645895319, -53.359035491943],
      "ImageType": [
        "ORIGINAL",
        "PRIMARY",
        "M",
        "ND",
        "MOSAIC"
],
      "ImagedNucleus": "1H",
      "ImagingFrequency": 123.253648,
      "InPlanePhaseEncodingDirection": "COL",
      "MRAcquisitionType": "2D",
      "MagneticFieldStrength": 3.0,
      "Manufacturer": "SIEMENS",
      "ManufacturerModelName": "TrioTim",
      "Modality": "MR",
      "NumberOfAverages": 1.0,
      "NumberOfPhaseEncodingSteps": 64,
      "PercentPhaseFieldOfView": 100.0,
      "PercentSampling": 100.0,
      "PerformedProcedureStepStartTime": "110155.312000",
      "PhotometricInterpretation": "MONOCHROME2",
      "PixelBandwidth": 2520.0,
      "PixelRepresentation": 0,
      "PixelSpacing": [3.125, 3.125],
      "ProtocolName": "ge_func_3x3x4_164",
      "RepetitionTime": 2000.0,
      "Rows": 384,
      "SAR": 0.15983177515075,
      "SamplesPerPixel": 1,
      "ScanOptions": "FS",
      "ScanningSequence": "EP",
      "SequenceName": "*epfid2d1_64",
      "SequenceVariant": "SK",
      "SeriesDescription": "ge_func_3x3x4_164",
      "SeriesNumber": 5,
      "SeriesTime": "112426.921000",
      "SliceLocation": -53.359035491943,
      "SliceThickness": 4.0,
      "SmallestImagePixelValue": 0,
      "SoftwareVersions": "syngo MR B17",
      "SpacingBetweenSlices": 4.6000000238419,
      "SpecificCharacterSet": "ISO_IR 100",
      "StudyID": "1",
      "StudyTime": "110154.468000",
      "TransmitCoilName": "Body",
      "VariableFlipAngleFlag": "N",
      "WindowCenterWidthExplanation": "Algo1",
      "dBdt": 0.0},
    "slices": {}
  },
  "time": {
    "samples": {
      "AcquisitionNumber": [1, 2, 3, 4, 5, 6, 7, 8, 9, 10, 11, 12, 13, 14, 15, 16, 17, 18, 19, 20, 21, 22, 23, 24, 25, 26, 27, 28, 29, 30, 31, 32, 33, 34, 35, 36, 37, 38, 39, 40, 41, 42, 43, 44, 45, 46, 47, 48, 49, 50, 51, 52, 53, 54, 55, 56, 57, 58, 59, 60, 61, 62, 63, 64, 65, 66, 67, 68, 69, 70, 71, 72, 73, 74, 75, 76, 77, 78, 79, 80, 81, 82, 83, 84, 85, 86, 87, 88, 89, 90, 91, 92, 93, 94, 95, 96, 97, 98, 99, 100, 101, 102, 103, 104, 105, 106, 107, 108, 109, 110, 111, 112, 113, 114, 115, 116, 117, 118, 119, 120, 121, 122, 123, 124, 125, 126, 127, 128, 129, 130, 131, 132, 133, 134, 135, 136, 137, 138, 139, 140, 141, 142, 143, 144, 145, 146, 147, 148, 149, 150, 151, 152, 153, 154, 155, 156, 157, 158, 159, 160, 161, 162, 163, 164],
      "AcquisitionTime": ["112335.987500", "112337.995000", "112340.002500", "112342.010000", "112344.020000", "112346.027500", "112348.035000", "112350.042500", "112352.052500", "112354.060000", "112356.067500", "112358.075000", "112400.082500", "112402.092500", "112404.100000", "112406.107500", "112408.115000", "112410.122500", "112412.132500", "112414.140000", "112416.147500", "112418.155000", "112420.162500", "112422.172500", "112424.180000", "112426.187500", "112428.195000", "112430.205000", "112432.212500", "112434.220000", "112436.227500", "112438.235000", "112440.245000", "112442.252500", "112444.260000", "112446.267500", "112448.275000", "112450.285000", "112452.292500", "112454.300000", "112456.307500", "112458.317500", "112500.325000", "112502.332500", "112504.340000", "112506.347500", "112508.357500", "112510.365000", "112512.372500", "112514.380000", "112516.387500", "112518.397500", "112520.405000", "112522.412500", "112524.420000", "112526.430000", "112528.437500", "112530.445000", "112532.452500", "112534.460000", "112536.470000", "112538.477500", "112540.485000", "112542.492500", "112544.500000", "112546.510000", "112548.517500", "112550.525000", "112552.532500", "112554.540000", "112556.550000", "112558.557500", "112600.565000", "112602.572500", "112604.582500", "112606.590000", "112608.597500", "112610.605000", "112612.612500", "112614.622500", "112616.630000", "112618.637500", "112620.645000", "112622.652500", "112624.662500", "112626.670000", "112628.677500", "112630.685000", "112632.695000", "112634.702500", "112636.710000", "112638.717500", "112640.725000", "112642.735000", "112644.742500", "112646.750000", "112648.757500", "112650.765000", "112652.775000", "112654.782500", "112656.790000", "112658.797500", "112700.807500", "112702.815000", "112704.822500", "112706.830000", "112708.837500", "112710.847500", "112712.855000", "112714.862500", "112716.870000", "112718.877500", "112720.887500", "112722.895000", "112724.902500", "112726.910000", "112728.917500", "112730.927500", "112732.935000", "112734.942500", "112736.950000", "112738.960000", "112740.967500", "112742.975000", "112744.982500", "112746.990000", "112749.000000", "112751.007500", "112753.015000", "112755.022500", "112757.030000", "112759.040000", "112801.047500", "112803.055000", "112805.062500", "112807.072500", "112809.080000", "112811.087500", "112813.095000", "112815.102500", "112817.112500", "112819.120000", "112821.127500", "112823.135000", "112825.142500", "112827.152500", "112829.160000", "112831.167500", "112833.175000", "112835.185000", "112837.192500", "112839.200000", "112841.207500", "112843.215000", "112845.225000", "112847.232500", "112849.240000", "112851.247500", "112853.255000", "112855.265000", "112857.272500", "112859.280000", "112901.287500", "112903.295000"],
      "ContentTime": ["112426.921000", "112426.937000", "112426.937000", "112426.937000", "112426.937000", "112426.937000", "112426.937000", "112426.937000", "112426.953000", "112426.953000", "112426.953000", "112426.953000", "112426.953000", "112426.953000", "112426.953000", "112426.953000", "112426.953000", "112426.968000", "112426.968000", "112426.968000", "112426.968000", "112426.968000", "112426.968000", "112426.984000", "112426.984000", "112506.921000", "112506.921000", "112506.921000", "112506.921000", "112506.937000", "112506.937000", "112506.937000", "112506.937000", "112506.937000", "112506.953000", "112506.953000", "112506.953000", "112506.953000", "112506.953000", "112506.953000", "112506.953000", "112506.953000", "112506.968000", "112506.968000", "112506.968000", "112546.921000", "112546.921000", "112546.921000", "112546.921000", "112546.937000", "112546.937000", "112546.937000", "112546.937000", "112546.937000", "112546.953000", "112546.953000", "112546.953000", "112546.953000", "112546.968000", "112546.968000", "112546.968000", "112546.968000", "112546.968000", "112546.968000", "112546.968000", "112626.921000", "112626.937000", "112626.937000", "112626.953000", "112626.953000", "112626.953000", "112626.953000", "112626.953000", "112626.953000", "112626.953000", "112626.953000", "112626.968000", "112626.968000", "112626.968000", "112626.968000", "112626.968000", "112626.968000", "112626.968000", "112626.968000", "112626.984000", "112646.921000", "112646.921000", "112646.921000", "112646.921000", "112646.937000", "112646.937000", "112646.937000", "112646.937000", "112646.937000", "112646.937000", "112726.921000", "112726.921000", "112726.921000", "112726.937000", "112726.937000", "112726.937000", "112726.937000", "112726.937000", "112726.953000", "112726.953000", "112726.953000", "112726.953000", "112726.953000", "112726.953000", "112726.953000", "112726.968000", "112726.968000", "112726.968000", "112726.968000", "112726.968000", "112806.921000", "112806.921000", "112806.921000", "112806.921000", "112806.937000", "112806.937000", "112806.937000", "112806.937000", "112806.937000", "112806.937000", "112806.937000", "112806.937000", "112806.953000", "112806.953000", "112806.953000", "112806.953000", "112806.953000", "112806.953000", "112806.953000", "112806.953000", "112846.921000", "112846.921000", "112846.921000", "112846.921000", "112846.937000", "112846.937000", "112846.937000", "112846.937000", "112846.937000", "112846.937000", "112846.937000", "112846.953000", "112846.953000", "112846.953000", "112846.953000", "112846.953000", "112846.968000", "112846.968000", "112846.968000", "112846.968000", "112904.296000", "112904.296000", "112904.296000", "112904.296000", "112904.296000", "112904.312000", "112904.312000", "112904.312000", "112904.312000"],
      "InstanceCreationTime": ["112426.921000", "112426.937000", "112426.937000", "112426.937000", "112426.937000", "112426.937000", "112426.937000", "112426.937000", "112426.953000", "112426.953000", "112426.953000", "112426.953000", "112426.953000", "112426.953000", "112426.953000", "112426.953000", "112426.953000", "112426.968000", "112426.968000", "112426.968000", "112426.968000", "112426.968000", "112426.968000", "112426.984000", "112426.984000", "112506.921000", "112506.921000", "112506.921000", "112506.921000", "112506.937000", "112506.937000", "112506.937000", "112506.937000", "112506.937000", "112506.953000", "112506.953000", "112506.953000", "112506.953000", "112506.953000", "112506.953000", "112506.953000", "112506.953000", "112506.968000", "112506.968000", "112506.968000", "112546.921000", "112546.921000", "112546.921000", "112546.921000", "112546.937000", "112546.937000", "112546.937000", "112546.937000", "112546.937000", "112546.953000", "112546.953000", "112546.953000", "112546.953000", "112546.968000", "112546.968000", "112546.968000", "112546.968000", "112546.968000", "112546.968000", "112546.968000", "112626.921000", "112626.937000", "112626.937000", "112626.953000", "112626.953000", "112626.953000", "112626.953000", "112626.953000", "112626.953000", "112626.953000", "112626.953000", "112626.968000", "112626.968000", "112626.968000", "112626.968000", "112626.968000", "112626.968000", "112626.968000", "112626.968000", "112626.984000", "112646.921000", "112646.921000", "112646.921000", "112646.921000", "112646.937000", "112646.937000", "112646.937000", "112646.937000", "112646.937000", "112646.937000", "112726.921000", "112726.921000", "112726.921000", "112726.937000", "112726.937000", "112726.937000", "112726.937000", "112726.937000", "112726.953000", "112726.953000", "112726.953000", "112726.953000", "112726.953000", "112726.953000", "112726.953000", "112726.968000", "112726.968000", "112726.968000", "112726.968000", "112726.968000", "112806.921000", "112806.921000", "112806.921000", "112806.921000", "112806.937000", "112806.937000", "112806.937000", "112806.937000", "112806.937000", "112806.937000", "112806.937000", "112806.937000", "112806.953000", "112806.953000", "112806.953000", "112806.953000", "112806.953000", "112806.953000", "112806.953000", "112806.953000", "112846.921000", "112846.921000", "112846.921000", "112846.921000", "112846.937000", "112846.937000", "112846.937000", "112846.937000", "112846.937000", "112846.937000", "112846.937000", "112846.953000", "112846.953000", "112846.953000", "112846.953000", "112846.953000", "112846.968000", "112846.968000", "112846.968000", "112846.968000", "112904.296000", "112904.296000", "112904.296000", "112904.296000", "112904.296000", "112904.312000", "112904.312000", "112904.312000", "112904.312000"],
      "InstanceNumber": [1, 2, 3, 4, 5, 6, 7, 8, 9, 10, 11, 12, 13, 14, 15, 16, 17, 18, 19, 20, 21, 22, 23, 24, 25, 26, 27, 28, 29, 30, 31, 32, 33, 34, 35, 36, 37, 38, 39, 40, 41, 42, 43, 44, 45, 46, 47, 48, 49, 50, 51, 52, 53, 54, 55, 56, 57, 58, 59, 60, 61, 62, 63, 64, 65, 66, 67, 68, 69, 70, 71, 72, 73, 74, 75, 76, 77, 78, 79, 80, 81, 82, 83, 84, 85, 86, 87, 88, 89, 90, 91, 92, 93, 94, 95, 96, 97, 98, 99, 100, 101, 102, 103, 104, 105, 106, 107, 108, 109, 110, 111, 112, 113, 114, 115, 116, 117, 118, 119, 120, 121, 122, 123, 124, 125, 126, 127, 128, 129, 130, 131, 132, 133, 134, 135, 136, 137, 138, 139, 140, 141, 142, 143, 144, 145, 146, 147, 148, 149, 150, 151, 152, 153, 154, 155, 156, 157, 158, 159, 160, 161, 162, 163, 164],
      "LargestImagePixelValue": [1823, 1770, 1752, 1750, 1750, 1738, 1747, 1745, 1729, 1715, 1703, 1723, 1733, 1734, 1734, 1718, 1735, 1737, 1735, 1733, 1740, 1746, 1736, 1738, 1751, 1741, 1737, 1739, 1745, 1749, 1727, 1719, 1734, 1730, 1757, 1735, 1727, 1718, 1727, 1751, 1744, 1728, 1741, 1725, 1758, 1744, 1745, 1738, 1738, 1732, 1747, 1725, 1729, 1734, 1745, 1959, 1746, 1753, 1756, 1751, 1766, 1736, 1733, 1729, 1731, 1720, 1752, 1735, 1736, 1732, 1724, 1741, 1726, 1752, 1741, 1742, 1726, 1715, 1727, 1749, 1717, 1740, 1709, 1713, 1733, 1743, 1721, 1706, 1725, 1720, 1722, 1727, 1723, 1719, 1722, 1715, 1689, 1709, 1718, 1722, 1707, 1718, 1701, 1706, 1767, 1699, 1703, 1702, 1712, 1713, 1726, 1683, 1697, 1709, 1697, 1716, 1704, 1722, 1677, 1698, 1712, 1690, 1698, 1647, 1695, 1691, 1661, 1662, 1680, 1692, 1686, 1679, 1702, 1686, 1697, 1689, 1691, 1708, 1688, 1715, 1721, 1919, 1674, 1683, 1685, 1681, 1692, 1687, 1680, 1704, 1691, 1692, 1686, 1702, 1706, 1692, 1671, 1690, 1695, 1673, 1675, 1678, 1691, 1708],
      "WindowCenter": [725.0, 723.0, 722.0, 722.0, 721.0, 721.0, 721.0, 721.0, 721.0, 719.0, 719.0, 720.0, 721.0, 720.0, 720.0, 720.0, 720.0, 720.0, 720.0, 720.0, 720.0, 720.0, 720.0, 721.0, 721.0, 720.0, 720.0, 720.0, 721.0, 721.0, 720.0, 720.0, 721.0, 721.0, 721.0, 720.0, 720.0, 720.0, 720.0, 720.0, 721.0, 720.0, 721.0, 721.0, 721.0, 721.0, 721.0, 721.0, 720.0, 721.0, 720.0, 721.0, 722.0, 721.0, 720.0, 722.0, 721.0, 721.0, 721.0, 722.0, 723.0, 722.0, 721.0, 721.0, 721.0, 721.0, 722.0, 722.0, 722.0, 722.0, 721.0, 720.0, 720.0, 722.0, 722.0, 722.0, 721.0, 721.0, 722.0, 722.0, 721.0, 721.0, 721.0, 721.0, 722.0, 722.0, 721.0, 721.0, 721.0, 722.0, 721.0, 721.0, 721.0, 721.0, 722.0, 721.0, 721.0, 721.0, 721.0, 722.0, 721.0, 722.0, 721.0, 721.0, 721.0, 721.0, 722.0, 721.0, 721.0, 721.0, 721.0, 721.0, 721.0, 722.0, 721.0, 721.0, 722.0, 723.0, 722.0, 722.0, 721.0, 721.0, 722.0, 723.0, 723.0, 722.0, 721.0, 721.0, 722.0, 722.0, 722.0, 721.0, 722.0, 722.0, 722.0, 721.0, 721.0, 722.0, 721.0, 722.0, 721.0, 722.0, 720.0, 721.0, 721.0, 721.0, 722.0, 722.0, 722.0, 722.0, 722.0, 722.0, 722.0, 722.0, 722.0, 721.0, 721.0, 722.0, 722.0, 721.0, 721.0, 722.0, 722.0, 722.0],
      "WindowWidth": [1595.0, 1587.0, 1585.0, 1585.0, 1582.0, 1582.0, 1582.0, 1581.0, 1580.0, 1576.0, 1575.0, 1578.0, 1581.0, 1579.0, 1580.0, 1579.0, 1579.0, 1579.0, 1578.0, 1579.0, 1578.0, 1578.0, 1579.0, 1581.0, 1580.0, 1579.0, 1578.0, 1579.0, 1582.0, 1582.0, 1579.0, 1578.0, 1581.0, 1581.0, 1582.0, 1578.0, 1577.0, 1577.0, 1577.0, 1579.0, 1580.0, 1579.0, 1580.0, 1582.0, 1583.0, 1581.0, 1582.0, 1581.0, 1579.0, 1580.0, 1579.0, 1580.0, 1583.0, 1582.0, 1579.0, 1584.0, 1580.0, 1581.0, 1582.0, 1584.0, 1587.0, 1583.0, 1581.0, 1581.0, 1582.0, 1582.0, 1585.0, 1585.0, 1586.0, 1585.0, 1581.0, 1578.0, 1579.0, 1584.0, 1585.0, 1583.0, 1581.0, 1582.0, 1583.0, 1584.0, 1582.0, 1582.0, 1581.0, 1582.0, 1584.0, 1583.0, 1581.0, 1580.0, 1582.0, 1583.0, 1581.0, 1580.0, 1580.0, 1583.0, 1583.0, 1582.0, 1580.0, 1581.0, 1581.0, 1583.0, 1582.0, 1583.0, 1581.0, 1581.0, 1581.0, 1581.0, 1583.0, 1583.0, 1581.0, 1580.0, 1581.0, 1580.0, 1582.0, 1583.0, 1582.0, 1582.0, 1583.0, 1586.0, 1583.0, 1583.0, 1581.0, 1580.0, 1582.0, 1586.0, 1588.0, 1582.0, 1580.0, 1581.0, 1584.0, 1584.0, 1582.0, 1582.0, 1583.0, 1583.0, 1583.0, 1582.0, 1582.0, 1583.0, 1582.0, 1582.0, 1582.0, 1585.0, 1579.0, 1580.0, 1580.0, 1582.0, 1583.0, 1583.0, 1583.0, 1583.0, 1583.0, 1583.0, 1583.0, 1583.0, 1583.0, 1582.0, 1583.0, 1584.0, 1584.0, 1581.0, 1580.0, 1583.0, 1585.0, 1585.0]
    },
    "slices": {}
  }
}