{
  "AcquisitionMatrixPE": 64,
  "AcquisitionNumber": 1,
  "AcquisitionTime": "10:34:36.225000",
  "BandwidthPerPixelPhaseEncode": 33.967,
  "BaseResolution": 64,
  "CoilCombinationMethod": "Sum of Squares",
  "CoilString": "C:HEA;HEP",
  "ConversionSoftware": "dcm2niix",
  "ConversionSoftwareVersion": "v1.0.20220720",
  "DerivedVendorReportedEchoSpacing": 0.000460005,
  "DeviceSerialNumber": "35193",
  "DwellTime": 3.1e-06,
  "EchoTime": 0.03,
  "EffectiveEchoSpacing": 0.000460005,
  "FlipAngle": 90,
  "HeudiconvVersion": "1.1.6",
  "ImageOrientationPatientDICOM": [1, 0, 0, 0, 1, 0],
  "ImageOrientationText": "Tra",
  "ImageType": [
    "ORIGINAL",
    "PRIMARY",
    "M",
    "ND",
    "MOSAIC"
],
  "ImagingFrequency": 123.254,
  "InPlanePhaseEncodingDirectionDICOM": "COL",
  "InstitutionAddress": "Xinjiekouwai Street No 19,Beijing,Haidian District,CN,100875",
  "InstitutionName": "BNU MRI Center",
  "InstitutionalDepartmentName": "Department",
  "MRAcquisitionType": "2D",
  "MagneticFieldStrength": 3,
  "Manufacturer": "Siemens",
  "ManufacturersModelName": "TrioTim",
  "MatrixCoilMode": "SENSE",
  "Modality": "MR",
  "NonlinearGradientCorrection": false,
  "PartialFourier": 1,
  "PatientPosition": "HFS",
  "PercentPhaseFOV": 100,
  "PercentSampling": 100,
  "PhaseEncodingDirection": "j-",
  "PhaseEncodingSteps": 64,
  "PhaseResolution": 1,
  "PixelBandwidth": 2520,
  "ProcedureStepDescription": "BNU_cst_2015^Guo.TaoMei",
  "ProtocolName": "ge_func_3x3x4_164",
  "PulseSequenceDetails": "%SiemensSeq%\\ep2d_bold",
  "ReceiveCoilName": "HeadMatrix",
  "ReconMatrixPE": 64,
  "RepetitionTime": 2,
  "SAR": 0.123766,
  "ScanOptions": "FS",
  "ScanningSequence": "EP",
  "SequenceName": "*epfid2d1_64",
  "SequenceVariant": "SK",
  "SeriesDescription": "ge_func_3x3x4_164",
  "SeriesNumber": 4,
  "ShimSetting": [-4496, -19489, -9851, 1248, -97, -488, 89, -18],
  "SliceThickness": 4,
  "SliceTiming": [0, 1.0325, 0.06, 1.095, 0.12, 1.155, 0.1825, 1.215, 0.2425, 1.2775, 0.3025, 1.3375, 0.365, 1.3975, 0.425, 1.46, 0.485, 1.52, 0.5475, 1.58, 0.6075, 1.6425, 0.6675, 1.7025, 0.73, 1.7625, 0.79, 1.825, 0.85, 1.885, 0.9125, 1.945, 0.9725],
  "SoftwareVersions": "syngo MR B17",
  "SpacingBetweenSlices": 4.6,
  "StationName": "MRC35193",
  "TaskName": "LanguageControl",
  "TotalReadoutTime": 0.0289803,
  "TxRefAmp": 313.627,
  "dcmmeta_affine": [
    [-3.125, 0.0, 0.0, 101.34939575195312],
    [0.0, 3.125, 0.0, -90.12801361083984],
    [0.0, 0.0, 4.599999904632568, -70.90120697021484],
    [0.0, 0.0, 0.0, 1.0]
],
  "dcmmeta_reorient_transform": [
    [0.0, -1.0, 0.0, 63.0],
    [1.0, 0.0, 0.0, 0.0],
    [0.0, 0.0, 1.0, 0.0],
    [0.0, 0.0, 0.0, 1.0]
],
  "dcmmeta_shape": [64, 64, 33, 164],
  "dcmmeta_slice_dim": 2,
  "dcmmeta_version": 0.6,
  "global": {
    "const": {
      "AcquisitionMatrix": [64, 0, 0, 64],
      "AngioFlag": "N",
      "BitsAllocated": 16,
      "BitsStored": 12,
      "Columns": 384,
      "EchoNumbers": 1,
      "EchoTime": 30.0,
      "EchoTrainLength": 1,
      "FlipAngle": 90.0,
      "HighBit": 11,
      "ImageOrientationPatient": [1.0, 0.0, 0.0, 0.0, 1.0, 0.0],
      "ImagePositionPatient": [-601.34939754009, -606.74698781967, -70.901206970215],
      "ImageType": [
        "ORIGINAL",
        "PRIMARY",
        "M",
        "ND",
        "MOSAIC"
],
      "ImagedNucleus": "1H",
      "ImagingFrequency": 123.253929,
      "InPlanePhaseEncodingDirection": "COL",
      "MRAcquisitionType": "2D",
      "MagneticFieldStrength": 3.0,
      "Manufacturer": "SIEMENS",
      "ManufacturerModelName": "TrioTim",
      "Modality": "MR",
      "NumberOfAverages": 1.0,
      "NumberOfPhaseEncodingSteps": 64,
      "PercentPhaseFieldOfView": 100.0,
      "PercentSampling": 100.0,
      "PerformedProcedureStepStartTime": "101909.437000",
      "PhotometricInterpretation": "MONOCHROME2",
      "PixelBandwidth": 2520.0,
      "PixelRepresentation": 0,
      "PixelSpacing": [3.125, 3.125],
      "ProtocolName": "ge_func_3x3x4_164",
      "RepetitionTime": 2000.0,
      "Rows": 384,
      "SAR": 0.12376596985769,
      "SamplesPerPixel": 1,
      "ScanOptions": "FS",
      "ScanningSequence": "EP",
      "SequenceName": "*epfid2d1_64",
      "SequenceVariant": "SK",
      "SeriesDescription": "ge_func_3x3x4_164",
      "SeriesNumber": 4,
      "SeriesTime": "103456.359000",
      "SliceLocation": -70.901206970215,
      "SliceThickness": 4.0,
      "SmallestImagePixelValue": 0,
      "SoftwareVersions": "syngo MR B17",
      "SpacingBetweenSlices": 4.6000001430511,
      "SpecificCharacterSet": "ISO_IR 100",
      "StudyID": "1",
      "StudyTime": "101909.359000",
      "TransmitCoilName": "Body",
      "VariableFlipAngleFlag": "N",
      "WindowCenterWidthExplanation": "Algo1",
      "dBdt": 0.0},
    "slices": {}
  },
  "time": {
    "samples": {
      "AcquisitionNumber": [1, 2, 3, 4, 5, 6, 7, 8, 9, 10, 11, 12, 13, 14, 15, 16, 17, 18, 19, 20, 21, 22, 23, 24, 25, 26, 27, 28, 29, 30, 31, 32, 33, 34, 35, 36, 37, 38, 39, 40, 41, 42, 43, 44, 45, 46, 47, 48, 49, 50, 51, 52, 53, 54, 55, 56, 57, 58, 59, 60, 61, 62, 63, 64, 65, 66, 67, 68, 69, 70, 71, 72, 73, 74, 75, 76, 77, 78, 79, 80, 81, 82, 83, 84, 85, 86, 87, 88, 89, 90, 91, 92, 93, 94, 95, 96, 97, 98, 99, 100, 101, 102, 103, 104, 105, 106, 107, 108, 109, 110, 111, 112, 113, 114, 115, 116, 117, 118, 119, 120, 121, 122, 123, 124, 125, 126, 127, 128, 129, 130, 131, 132, 133, 134, 135, 136, 137, 138, 139, 140, 141, 142, 143, 144, 145, 146, 147, 148, 149, 150, 151, 152, 153, 154, 155, 156, 157, 158, 159, 160, 161, 162, 163, 164],
      "AcquisitionTime": ["103436.225000", "103438.232500", "103440.240000", "103442.247500", "103444.255000", "103446.265000", "103448.272500", "103450.280000", "103452.287500", "103454.297500", "103456.305000", "103458.312500", "103500.320000", "103502.327500", "103504.337500", "103506.345000", "103508.352500", "103510.360000", "103512.367500", "103514.377500", "103516.385000", "103518.392500", "103520.400000", "103522.407500", "103524.417500", "103526.425000", "103528.432500", "103530.440000", "103532.450000", "103534.457500", "103536.465000", "103538.472500", "103540.480000", "103542.490000", "103544.497500", "103546.505000", "103548.512500", "103550.520000", "103552.530000", "103554.537500", "103556.545000", "103558.552500", "103600.562500", "103602.570000", "103604.577500", "103606.585000", "103608.592500", "103610.602500", "103612.610000", "103614.617500", "103616.625000", "103618.632500", "103620.642500", "103622.650000", "103624.657500", "103626.665000", "103628.675000", "103630.682500", "103632.690000", "103634.697500", "103636.705000", "103638.715000", "103640.722500", "103642.730000", "103644.737500", "103646.745000", "103648.755000", "103650.762500", "103652.770000", "103654.777500", "103656.785000", "103658.795000", "103700.802500", "103702.810000", "103704.817500", "103706.827500", "103708.835000", "103710.842500", "103712.850000", "103714.857500", "103716.867500", "103718.875000", "103720.882500", "103722.890000", "103724.897500", "103726.907500", "103728.915000", "103730.922500", "103732.930000", "103734.940000", "103736.947500", "103738.955000", "103740.962500", "103742.970000", "103744.980000", "103746.987500", "103748.995000", "103751.002500", "103753.010000", "103755.020000", "103757.027500", "103759.035000", "103801.042500", "103803.052500", "103805.060000", "103807.067500", "103809.075000", "103811.082500", "103813.092500", "103815.100000", "103817.107500", "103819.115000", "103821.122500", "103823.132500", "103825.140000", "103827.147500", "103829.155000", "103831.162500", "103833.172500", "103835.180000", "103837.187500", "103839.195000", "103841.205000", "103843.212500", "103845.220000", "103847.227500", "103849.235000", "103851.245000", "103853.252500", "103855.260000", "103857.267500", "103859.275000", "103901.285000", "103903.292500", "103905.300000", "103907.307500", "103909.317500", "103911.325000", "103913.332500", "103915.340000", "103917.347500", "103919.357500", "103921.365000", "103923.372500", "103925.380000", "103927.387500", "103929.397500", "103931.405000", "103933.412500", "103935.420000", "103937.430000", "103939.437500", "103941.445000", "103943.452500", "103945.460000", "103947.470000", "103949.477500", "103951.485000", "103953.492500", "103955.500000", "103957.510000", "103959.517500", "104001.525000", "104003.532500"],
      "ContentTime": ["103456.375000", "103456.375000", "103456.375000", "103456.375000", "103456.375000", "103456.375000", "103456.390000", "103456.390000", "103456.390000", "103536.359000", "103536.359000", "103536.359000", "103536.375000", "103536.375000", "103536.375000", "103536.375000", "103536.375000", "103536.375000", "103536.375000", "103536.390000", "103536.390000", "103536.390000", "103536.390000", "103536.390000", "103536.406000", "103536.406000", "103536.406000", "103536.406000", "103536.406000", "103616.359000", "103616.375000", "103616.375000", "103616.375000", "103616.375000", "103616.375000", "103616.375000", "103616.390000", "103616.390000", "103616.390000", "103616.390000", "103616.390000", "103616.390000", "103616.390000", "103616.390000", "103616.406000", "103616.406000", "103616.406000", "103616.406000", "103616.406000", "103656.359000", "103656.359000", "103656.375000", "103656.375000", "103656.375000", "103656.375000", "103656.375000", "103656.375000", "103656.375000", "103656.390000", "103656.390000", "103656.390000", "103656.390000", "103656.390000", "103656.390000", "103656.390000", "103656.390000", "103656.406000", "103656.406000", "103656.406000", "103736.359000", "103736.359000", "103736.359000", "103736.375000", "103736.375000", "103736.375000", "103736.375000", "103736.375000", "103736.375000", "103736.375000", "103736.390000", "103736.390000", "103736.390000", "103736.390000", "103736.390000", "103736.390000", "103736.390000", "103736.406000", "103736.406000", "103736.406000", "103816.359000", "103816.359000", "103816.359000", "103816.375000", "103816.375000", "103816.375000", "103816.375000", "103816.375000", "103816.375000", "103816.375000", "103816.390000", "103816.390000", "103816.390000", "103816.390000", "103816.390000", "103816.390000", "103816.390000", "103816.390000", "103816.406000", "103816.406000", "103856.359000", "103856.359000", "103856.359000", "103856.375000", "103856.375000", "103856.375000", "103856.375000", "103856.375000", "103856.375000", "103856.375000", "103856.375000", "103856.390000", "103856.390000", "103856.390000", "103856.390000", "103856.390000", "103856.390000", "103856.390000", "103856.390000", "103856.406000", "103936.359000", "103936.359000", "103936.359000", "103936.375000", "103936.375000", "103936.375000", "103936.375000", "103936.375000", "103936.375000", "103936.375000", "103936.375000", "103936.390000", "103936.390000", "103936.390000", "103936.390000", "103936.390000", "103936.406000", "103936.406000", "103936.406000", "103936.406000", "104005.328000", "104005.328000", "104005.328000", "104005.328000", "104005.343000", "104005.343000", "104005.343000", "104005.343000", "104005.343000", "104005.343000", "104005.343000", "104005.359000", "104005.359000", "104005.359000", "104005.359000"],
      "InstanceCreationTime": ["103456.375000", "103456.375000", "103456.375000", "103456.375000", "103456.375000", "103456.375000", "103456.390000", "103456.390000", "103456.390000", "103536.359000", "103536.359000", "103536.359000", "103536.375000", "103536.375000", "103536.375000", "103536.375000", "103536.375000", "103536.375000", "103536.375000", "103536.390000", "103536.390000", "103536.390000", "103536.390000", "103536.390000", "103536.406000", "103536.406000", "103536.406000", "103536.406000", "103536.406000", "103616.359000", "103616.375000", "103616.375000", "103616.375000", "103616.375000", "103616.375000", "103616.375000", "103616.390000", "103616.390000", "103616.390000", "103616.390000", "103616.390000", "103616.390000", "103616.390000", "103616.390000", "103616.406000", "103616.406000", "103616.406000", "103616.406000", "103616.406000", "103656.359000", "103656.359000", "103656.375000", "103656.375000", "103656.375000", "103656.375000", "103656.375000", "103656.375000", "103656.375000", "103656.390000", "103656.390000", "103656.390000", "103656.390000", "103656.390000", "103656.390000", "103656.390000", "103656.390000", "103656.406000", "103656.406000", "103656.406000", "103736.359000", "103736.359000", "103736.359000", "103736.375000", "103736.375000", "103736.375000", "103736.375000", "103736.375000", "103736.375000", "103736.375000", "103736.390000", "103736.390000", "103736.390000", "103736.390000", "103736.390000", "103736.390000", "103736.390000", "103736.406000", "103736.406000", "103736.406000", "103816.359000", "103816.359000", "103816.359000", "103816.375000", "103816.375000", "103816.375000", "103816.375000", "103816.375000", "103816.375000", "103816.375000", "103816.390000", "103816.390000", "103816.390000", "103816.390000", "103816.390000", "103816.390000", "103816.390000", "103816.390000", "103816.406000", "103816.406000", "103856.359000", "103856.359000", "103856.359000", "103856.375000", "103856.375000", "103856.375000", "103856.375000", "103856.375000", "103856.375000", "103856.375000", "103856.375000", "103856.390000", "103856.390000", "103856.390000", "103856.390000", "103856.390000", "103856.390000", "103856.390000", "103856.390000", "103856.406000", "103936.359000", "103936.359000", "103936.359000", "103936.375000", "103936.375000", "103936.375000", "103936.375000", "103936.375000", "103936.375000", "103936.375000", "103936.375000", "103936.390000", "103936.390000", "103936.390000", "103936.390000", "103936.390000", "103936.406000", "103936.406000", "103936.406000", "103936.406000", "104005.328000", "104005.328000", "104005.328000", "104005.328000", "104005.343000", "104005.343000", "104005.343000", "104005.343000", "104005.343000", "104005.343000", "104005.343000", "104005.359000", "104005.359000", "104005.359000", "104005.359000"],
      "InstanceNumber": [1, 2, 3, 4, 5, 6, 7, 8, 9, 10, 11, 12, 13, 14, 15, 16, 17, 18, 19, 20, 21, 22, 23, 24, 25, 26, 27, 28, 29, 30, 31, 32, 33, 34, 35, 36, 37, 38, 39, 40, 41, 42, 43, 44, 45, 46, 47, 48, 49, 50, 51, 52, 53, 54, 55, 56, 57, 58, 59, 60, 61, 62, 63, 64, 65, 66, 67, 68, 69, 70, 71, 72, 73, 74, 75, 76, 77, 78, 79, 80, 81, 82, 83, 84, 85, 86, 87, 88, 89, 90, 91, 92, 93, 94, 95, 96, 97, 98, 99, 100, 101, 102, 103, 104, 105, 106, 107, 108, 109, 110, 111, 112, 113, 114, 115, 116, 117, 118, 119, 120, 121, 122, 123, 124, 125, 126, 127, 128, 129, 130, 131, 132, 133, 134, 135, 136, 137, 138, 139, 140, 141, 142, 143, 144, 145, 146, 147, 148, 149, 150, 151, 152, 153, 154, 155, 156, 157, 158, 159, 160, 161, 162, 163, 164],
      "LargestImagePixelValue": [1880, 1834, 1820, 1813, 1816, 1810, 1805, 1813, 1804, 1822, 1804, 1806, 1803, 1812, 1797, 1807, 1809, 1800, 1817, 1799, 1802, 1810, 1800, 1794, 1797, 1786, 1807, 1801, 1815, 1795, 1794, 1787, 1793, 1796, 1784, 1769, 1780, 1784, 1797, 1793, 1805, 1787, 1782, 1804, 1788, 1778, 1787, 1761, 1796, 1796, 1802, 1780, 1754, 1787, 1783, 1771, 1785, 1788, 1776, 1754, 1790, 1787, 1769, 1776, 1777, 1785, 1756, 1761, 1773, 1796, 1778, 1763, 1767, 1781, 1779, 1777, 1778, 1785, 1792, 1787, 1796, 1781, 1772, 1773, 1774, 1777, 1783, 1800, 1769, 1761, 1762, 1757, 1758, 1770, 1781, 1768, 1755, 1750, 1777, 1756, 1751, 1754, 1772, 1771, 1753, 1752, 1757, 1764, 1765, 1753, 1760, 1753, 1751, 1764, 1765, 1767, 1769, 1760, 1766, 1750, 1767, 1767, 1758, 1761, 1756, 1758, 1782, 1753, 1764, 1754, 1768, 1763, 1777, 1757, 1767, 1766, 1765, 1774, 1761, 1775, 1747, 1774, 1775, 1773, 1773, 1749, 1761, 1748, 1746, 1752, 1751, 1779, 1766, 1772, 1760, 1769, 1774, 1756, 1765, 1758, 1761, 1748, 1755, 1737],
      "WindowCenter": [722.0, 720.0, 719.0, 718.0, 718.0, 718.0, 717.0, 717.0, 717.0, 717.0, 717.0, 718.0, 718.0, 718.0, 719.0, 718.0, 718.0, 718.0, 718.0, 719.0, 719.0, 719.0, 720.0, 720.0, 719.0, 719.0, 719.0, 719.0, 720.0, 720.0, 720.0, 720.0, 719.0, 719.0, 719.0, 719.0, 719.0, 719.0, 719.0, 719.0, 719.0, 719.0, 720.0, 720.0, 719.0, 718.0, 719.0, 719.0, 719.0, 719.0, 719.0, 719.0, 719.0, 719.0, 719.0, 719.0, 719.0, 719.0, 719.0, 718.0, 718.0, 718.0, 718.0, 718.0, 718.0, 719.0, 719.0, 719.0, 720.0, 720.0, 720.0, 719.0, 719.0, 719.0, 718.0, 719.0, 718.0, 719.0, 719.0, 719.0, 719.0, 719.0, 718.0, 718.0, 718.0, 718.0, 718.0, 719.0, 719.0, 719.0, 718.0, 718.0, 719.0, 719.0, 719.0, 719.0, 719.0, 719.0, 719.0, 719.0, 719.0, 719.0, 719.0, 718.0, 718.0, 718.0, 718.0, 718.0, 718.0, 718.0, 718.0, 719.0, 719.0, 719.0, 719.0, 719.0, 719.0, 718.0, 719.0, 719.0, 719.0, 719.0, 719.0, 719.0, 718.0, 718.0, 719.0, 719.0, 719.0, 719.0, 719.0, 720.0, 719.0, 719.0, 719.0, 719.0, 719.0, 720.0, 719.0, 720.0, 718.0, 718.0, 718.0, 718.0, 719.0, 718.0, 718.0, 718.0, 718.0, 718.0, 718.0, 718.0, 718.0, 719.0, 718.0, 718.0, 718.0, 718.0, 718.0, 718.0, 719.0, 719.0, 719.0, 718.0],
      "WindowWidth": [1581.0, 1575.0, 1572.0, 1571.0, 1571.0, 1568.0, 1567.0, 1567.0, 1566.0, 1566.0, 1566.0, 1569.0, 1569.0, 1571.0, 1572.0, 1570.0, 1569.0, 1569.0, 1571.0, 1572.0, 1571.0, 1572.0, 1576.0, 1575.0, 1573.0, 1572.0, 1573.0, 1573.0, 1576.0, 1576.0, 1575.0, 1574.0, 1574.0, 1573.0, 1572.0, 1572.0, 1571.0, 1573.0, 1572.0, 1572.0, 1573.0, 1572.0, 1575.0, 1575.0, 1573.0, 1570.0, 1571.0, 1571.0, 1571.0, 1572.0, 1572.0, 1574.0, 1573.0, 1574.0, 1573.0, 1574.0, 1573.0, 1573.0, 1573.0, 1570.0, 1569.0, 1570.0, 1569.0, 1570.0, 1570.0, 1572.0, 1573.0, 1573.0, 1574.0, 1574.0, 1575.0, 1572.0, 1572.0, 1571.0, 1571.0, 1572.0, 1570.0, 1571.0, 1573.0, 1573.0, 1573.0, 1571.0, 1570.0, 1570.0, 1569.0, 1570.0, 1571.0, 1572.0, 1572.0, 1572.0, 1570.0, 1571.0, 1572.0, 1572.0, 1573.0, 1572.0, 1572.0, 1573.0, 1571.0, 1573.0, 1572.0, 1572.0, 1571.0, 1570.0, 1570.0, 1570.0, 1569.0, 1571.0, 1568.0, 1570.0, 1570.0, 1571.0, 1572.0, 1572.0, 1572.0, 1572.0, 1572.0, 1571.0, 1573.0, 1572.0, 1573.0, 1572.0, 1572.0, 1572.0, 1570.0, 1571.0, 1572.0, 1572.0, 1573.0, 1573.0, 1574.0, 1575.0, 1573.0, 1573.0, 1573.0, 1574.0, 1572.0, 1574.0, 1572.0, 1575.0, 1570.0, 1570.0, 1571.0, 1571.0, 1572.0, 1569.0, 1569.0, 1568.0, 1569.0, 1569.0, 1569.0, 1570.0, 1569.0, 1571.0, 1570.0, 1570.0, 1568.0, 1570.0, 1571.0, 1570.0, 1572.0, 1572.0, 1571.0, 1570.0]
    },
    "slices": {}
  }
}