{
  "AcquisitionMatrixPE": 64,
  "AcquisitionNumber": 1,
  "AcquisitionTime": "10:40:47.425000",
  "BandwidthPerPixelPhaseEncode": 33.967,
  "BaseResolution": 64,
  "CoilCombinationMethod": "Sum of Squares",
  "CoilString": "C:HEA;HEP",
  "ConversionSoftware": "dcm2niix",
  "ConversionSoftwareVersion": "v1.0.20220720",
  "DerivedVendorReportedEchoSpacing": 0.000460005,
  "DeviceSerialNumber": "35193",
  "DwellTime": 3.1e-06,
  "EchoTime": 0.03,
  "EffectiveEchoSpacing": 0.000460005,
  "FlipAngle": 90,
  "HeudiconvVersion": "1.1.6",
  "ImageOrientationPatientDICOM": [1, 0, 0, 0, 1, 0],
  "ImageOrientationText": "Tra",
  "ImageType": [
    "ORIGINAL",
    "PRIMARY",
    "M",
    "ND",
    "MOSAIC"
],
  "ImagingFrequency": 123.254,
  "InPlanePhaseEncodingDirectionDICOM": "COL",
  "InstitutionAddress": "Xinjiekouwai Street No 19,Beijing,Haidian District,CN,100875",
  "InstitutionName": "BNU MRI Center",
  "InstitutionalDepartmentName": "Department",
  "MRAcquisitionType": "2D",
  "MagneticFieldStrength": 3,
  "Manufacturer": "Siemens",
  "ManufacturersModelName": "TrioTim",
  "MatrixCoilMode": "SENSE",
  "Modality": "MR",
  "NonlinearGradientCorrection": false,
  "PartialFourier": 1,
  "PatientPosition": "HFS",
  "PercentPhaseFOV": 100,
  "PercentSampling": 100,
  "PhaseEncodingDirection": "j-",
  "PhaseEncodingSteps": 64,
  "PhaseResolution": 1,
  "PixelBandwidth": 2520,
  "ProcedureStepDescription": "BNU_cst_2015^Guo.TaoMei",
  "ProtocolName": "ge_func_3x3x4_164",
  "PulseSequenceDetails": "%SiemensSeq%\\ep2d_bold",
  "ReceiveCoilName": "HeadMatrix",
  "ReconMatrixPE": 64,
  "RepetitionTime": 2,
  "SAR": 0.123766,
  "ScanOptions": "FS",
  "ScanningSequence": "EP",
  "SequenceName": "*epfid2d1_64",
  "SequenceVariant": "SK",
  "SeriesDescription": "ge_func_3x3x4_164",
  "SeriesNumber": 5,
  "ShimSetting": [-4496, -19489, -9851, 1248, -97, -488, 89, -18],
  "SliceThickness": 4,
  "SliceTiming": [0, 1.035, 0.0625, 1.095, 0.1225, 1.1575, 0.1825, 1.2175, 0.245, 1.2775, 0.305, 1.34, 0.365, 1.4, 0.4275, 1.46, 0.4875, 1.5225, 0.5475, 1.5825, 0.61, 1.6425, 0.67, 1.705, 0.73, 1.765, 0.7925, 1.825, 0.8525, 1.8875, 0.9125, 1.9475, 0.975],
  "SoftwareVersions": "syngo MR B17",
  "SpacingBetweenSlices": 4.6,
  "StationName": "MRC35193",
  "TaskName": "LanguageControl",
  "TotalReadoutTime": 0.0289803,
  "TxRefAmp": 313.627,
  "dcmmeta_affine": [
    [-3.125, 0.0, 0.0, 101.34939575195312],
    [0.0, 3.125, 0.0, -90.12801361083984],
    [0.0, 0.0, 4.599999904632568, -70.90120697021484],
    [0.0, 0.0, 0.0, 1.0]
],
  "dcmmeta_reorient_transform": [
    [0.0, -1.0, 0.0, 63.0],
    [1.0, 0.0, 0.0, 0.0],
    [0.0, 0.0, 1.0, 0.0],
    [0.0, 0.0, 0.0, 1.0]
],
  "dcmmeta_shape": [64, 64, 33, 164],
  "dcmmeta_slice_dim": 2,
  "dcmmeta_version": 0.6,
  "global": {
    "const": {
      "AcquisitionMatrix": [64, 0, 0, 64],
      "AngioFlag": "N",
      "BitsAllocated": 16,
      "BitsStored": 12,
      "Columns": 384,
      "EchoNumbers": 1,
      "EchoTime": 30.0,
      "EchoTrainLength": 1,
      "FlipAngle": 90.0,
      "HighBit": 11,
      "ImageOrientationPatient": [1.0, 0.0, 0.0, 0.0, 1.0, 0.0],
      "ImagePositionPatient": [-601.34939754009, -606.74698781967, -70.901206970215],
      "ImageType": [
        "ORIGINAL",
        "PRIMARY",
        "M",
        "ND",
        "MOSAIC"
],
      "ImagedNucleus": "1H",
      "ImagingFrequency": 123.253933,
      "InPlanePhaseEncodingDirection": "COL",
      "MRAcquisitionType": "2D",
      "MagneticFieldStrength": 3.0,
      "Manufacturer": "SIEMENS",
      "ManufacturerModelName": "TrioTim",
      "Modality": "MR",
      "NumberOfAverages": 1.0,
      "NumberOfPhaseEncodingSteps": 64,
      "PercentPhaseFieldOfView": 100.0,
      "PercentSampling": 100.0,
      "PerformedProcedureStepStartTime": "101909.437000",
      "PhotometricInterpretation": "MONOCHROME2",
      "PixelBandwidth": 2520.0,
      "PixelRepresentation": 0,
      "PixelSpacing": [3.125, 3.125],
      "ProtocolName": "ge_func_3x3x4_164",
      "RepetitionTime": 2000.0,
      "Rows": 384,
      "SAR": 0.12376596985769,
      "SamplesPerPixel": 1,
      "ScanOptions": "FS",
      "ScanningSequence": "EP",
      "SequenceName": "*epfid2d1_64",
      "SequenceVariant": "SK",
      "SeriesDescription": "ge_func_3x3x4_164",
      "SeriesNumber": 5,
      "SeriesTime": "104142.843000",
      "SliceLocation": -70.901206970215,
      "SliceThickness": 4.0,
      "SmallestImagePixelValue": 0,
      "SoftwareVersions": "syngo MR B17",
      "SpacingBetweenSlices": 4.6000001430511,
      "SpecificCharacterSet": "ISO_IR 100",
      "StudyID": "1",
      "StudyTime": "101909.359000",
      "TransmitCoilName": "Body",
      "VariableFlipAngleFlag": "N",
      "WindowCenterWidthExplanation": "Algo1",
      "dBdt": 0.0},
    "slices": {}
  },
  "time": {
    "samples": {
      "AcquisitionNumber": [1, 2, 3, 4, 5, 6, 7, 8, 9, 10, 11, 12, 13, 14, 15, 16, 17, 18, 19, 20, 21, 22, 23, 24, 25, 26, 27, 28, 29, 30, 31, 32, 33, 34, 35, 36, 37, 38, 39, 40, 41, 42, 43, 44, 45, 46, 47, 48, 49, 50, 51, 52, 53, 54, 55, 56, 57, 58, 59, 60, 61, 62, 63, 64, 65, 66, 67, 68, 69, 70, 71, 72, 73, 74, 75, 76, 77, 78, 79, 80, 81, 82, 83, 84, 85, 86, 87, 88, 89, 90, 91, 92, 93, 94, 95, 96, 97, 98, 99, 100, 101, 102, 103, 104, 105, 106, 107, 108, 109, 110, 111, 112, 113, 114, 115, 116, 117, 118, 119, 120, 121, 122, 123, 124, 125, 126, 127, 128, 129, 130, 131, 132, 133, 134, 135, 136, 137, 138, 139, 140, 141, 142, 143, 144, 145, 146, 147, 148, 149, 150, 151, 152, 153, 154, 155, 156, 157, 158, 159, 160, 161, 162, 163, 164],
      "AcquisitionTime": ["104047.425000", "104049.435000", "104051.442500", "104053.450000", "104055.457500", "104057.465000", "104059.475000", "104101.482500", "104103.490000", "104105.497500", "104107.505000", "104109.515000", "104111.522500", "104113.530000", "104115.537500", "104117.547500", "104119.555000", "104121.562500", "104123.570000", "104125.577500", "104127.587500", "104129.595000", "104131.602500", "104133.610000", "104135.617500", "104137.627500", "104139.635000", "104141.642500", "104143.650000", "104145.660000", "104147.667500", "104149.675000", "104151.682500", "104153.690000", "104155.700000", "104157.707500", "104159.715000", "104201.722500", "104203.730000", "104205.740000", "104207.747500", "104209.755000", "104211.762500", "104213.772500", "104215.780000", "104217.787500", "104219.795000", "104221.802500", "104223.812500", "104225.820000", "104227.827500", "104229.835000", "104231.842500", "104233.852500", "104235.860000", "104237.867500", "104239.875000", "104241.882500", "104243.892500", "104245.900000", "104247.907500", "104249.915000", "104251.925000", "104253.932500", "104255.940000", "104257.947500", "104259.955000", "104301.965000", "104303.972500", "104305.980000", "104307.987500", "104309.995000", "104312.005000", "104314.012500", "104316.020000", "104318.027500", "104320.037500", "104322.045000", "104324.052500", "104326.060000", "104328.067500", "104330.077500", "104332.085000", "104334.092500", "104336.100000", "104338.107500", "104340.117500", "104342.125000", "104344.132500", "104346.140000", "104348.150000", "104350.157500", "104352.165000", "104354.172500", "104356.180000", "104358.190000", "104400.197500", "104402.205000", "104404.212500", "104406.220000", "104408.230000", "104410.237500", "104412.245000", "104414.252500", "104416.262500", "104418.270000", "104420.277500", "104422.285000", "104424.292500", "104426.302500", "104428.310000", "104430.317500", "104432.325000", "104434.332500", "104436.342500", "104438.350000", "104440.357500", "104442.365000", "104444.372500", "104446.382500", "104448.390000", "104450.397500", "104452.405000", "104454.415000", "104456.422500", "104458.430000", "104500.437500", "104502.445000", "104504.455000", "104506.462500", "104508.470000", "104510.477500", "104512.485000", "104514.495000", "104516.502500", "104518.510000", "104520.517500", "104522.527500", "104524.535000", "104526.542500", "104528.550000", "104530.557500", "104532.567500", "104534.575000", "104536.582500", "104538.590000", "104540.597500", "104542.607500", "104544.615000", "104546.622500", "104548.630000", "104550.640000", "104552.647500", "104554.655000", "104556.662500", "104558.670000", "104600.680000", "104602.687500", "104604.695000", "104606.702500", "104608.710000", "104610.720000", "104612.727500", "104614.735000"],
      "ContentTime": ["104142.859000", "104142.859000", "104142.859000", "104142.859000", "104142.859000", "104142.859000", "104142.859000", "104142.875000", "104142.875000", "104142.875000", "104142.875000", "104142.875000", "104142.875000", "104142.875000", "104142.875000", "104142.890000", "104142.890000", "104142.890000", "104142.890000", "104142.890000", "104142.906000", "104142.906000", "104142.906000", "104142.906000", "104142.921000", "104142.921000", "104142.921000", "104222.843000", "104222.843000", "104222.843000", "104222.859000", "104222.859000", "104222.859000", "104222.859000", "104222.859000", "104222.859000", "104222.859000", "104222.875000", "104222.875000", "104222.875000", "104222.875000", "104222.890000", "104222.890000", "104222.890000", "104222.890000", "104222.890000", "104222.890000", "104302.843000", "104302.843000", "104302.843000", "104302.859000", "104302.859000", "104302.859000", "104302.859000", "104302.859000", "104302.875000", "104302.875000", "104302.890000", "104302.890000", "104302.890000", "104302.890000", "104302.890000", "104302.890000", "104302.890000", "104302.906000", "104302.906000", "104302.906000", "104342.843000", "104342.859000", "104342.859000", "104342.859000", "104342.859000", "104342.859000", "104342.859000", "104342.859000", "104342.875000", "104342.875000", "104342.875000", "104342.875000", "104342.875000", "104342.875000", "104342.875000", "104342.890000", "104342.890000", "104342.890000", "104342.890000", "104342.890000", "104422.843000", "104422.843000", "104422.843000", "104422.859000", "104422.859000", "104422.859000", "104422.859000", "104422.859000", "104422.859000", "104422.859000", "104422.859000", "104422.875000", "104422.875000", "104422.875000", "104422.875000", "104422.875000", "104422.875000", "104422.875000", "104422.875000", "104422.890000", "104502.843000", "104502.843000", "104502.843000", "104502.859000", "104502.859000", "104502.859000", "104502.859000", "104502.859000", "104502.859000", "104502.859000", "104502.875000", "104502.875000", "104502.875000", "104502.875000", "104502.875000", "104502.875000", "104502.875000", "104502.875000", "104502.890000", "104502.890000", "104542.843000", "104542.843000", "104542.859000", "104542.859000", "104542.859000", "104542.859000", "104542.859000", "104542.859000", "104542.875000", "104542.875000", "104542.875000", "104542.875000", "104542.875000", "104542.875000", "104542.875000", "104542.875000", "104542.890000", "104542.890000", "104542.890000", "104542.890000", "104616.546000", "104616.546000", "104616.562000", "104616.562000", "104616.562000", "104616.562000", "104616.562000", "104616.578000", "104616.578000", "104616.578000", "104616.578000", "104616.578000", "104616.578000", "104616.578000", "104616.578000", "104616.593000", "104616.593000"],
      "InstanceCreationTime": ["104142.859000", "104142.859000", "104142.859000", "104142.859000", "104142.859000", "104142.859000", "104142.859000", "104142.875000", "104142.875000", "104142.875000", "104142.875000", "104142.875000", "104142.875000", "104142.875000", "104142.875000", "104142.890000", "104142.890000", "104142.890000", "104142.890000", "104142.890000", "104142.906000", "104142.906000", "104142.906000", "104142.906000", "104142.921000", "104142.921000", "104142.921000", "104222.843000", "104222.843000", "104222.843000", "104222.859000", "104222.859000", "104222.859000", "104222.859000", "104222.859000", "104222.859000", "104222.859000", "104222.875000", "104222.875000", "104222.875000", "104222.875000", "104222.890000", "104222.890000", "104222.890000", "104222.890000", "104222.890000", "104222.890000", "104302.843000", "104302.843000", "104302.843000", "104302.859000", "104302.859000", "104302.859000", "104302.859000", "104302.859000", "104302.875000", "104302.875000", "104302.890000", "104302.890000", "104302.890000", "104302.890000", "104302.890000", "104302.890000", "104302.890000", "104302.906000", "104302.906000", "104302.906000", "104342.843000", "104342.859000", "104342.859000", "104342.859000", "104342.859000", "104342.859000", "104342.859000", "104342.859000", "104342.875000", "104342.875000", "104342.875000", "104342.875000", "104342.875000", "104342.875000", "104342.875000", "104342.890000", "104342.890000", "104342.890000", "104342.890000", "104342.890000", "104422.843000", "104422.843000", "104422.843000", "104422.859000", "104422.859000", "104422.859000", "104422.859000", "104422.859000", "104422.859000", "104422.859000", "104422.859000", "104422.875000", "104422.875000", "104422.875000", "104422.875000", "104422.875000", "104422.875000", "104422.875000", "104422.875000", "104422.890000", "104502.843000", "104502.843000", "104502.843000", "104502.859000", "104502.859000", "104502.859000", "104502.859000", "104502.859000", "104502.859000", "104502.859000", "104502.875000", "104502.875000", "104502.875000", "104502.875000", "104502.875000", "104502.875000", "104502.875000", "104502.875000", "104502.890000", "104502.890000", "104542.843000", "104542.843000", "104542.859000", "104542.859000", "104542.859000", "104542.859000", "104542.859000", "104542.859000", "104542.875000", "104542.875000", "104542.875000", "104542.875000", "104542.875000", "104542.875000", "104542.875000", "104542.875000", "104542.890000", "104542.890000", "104542.890000", "104542.890000", "104616.546000", "104616.546000", "104616.562000", "104616.562000", "104616.562000", "104616.562000", "104616.562000", "104616.578000", "104616.578000", "104616.578000", "104616.578000", "104616.578000", "104616.578000", "104616.578000", "104616.578000", "104616.593000", "104616.593000"],
      "InstanceNumber": [1, 2, 3, 4, 5, 6, 7, 8, 9, 10, 11, 12, 13, 14, 15, 16, 17, 18, 19, 20, 21, 22, 23, 24, 25, 26, 27, 28, 29, 30, 31, 32, 33, 34, 35, 36, 37, 38, 39, 40, 41, 42, 43, 44, 45, 46, 47, 48, 49, 50, 51, 52, 53, 54, 55, 56, 57, 58, 59, 60, 61, 62, 63, 64, 65, 66, 67, 68, 69, 70, 71, 72, 73, 74, 75, 76, 77, 78, 79, 80, 81, 82, 83, 84, 85, 86, 87, 88, 89, 90, 91, 92, 93, 94, 95, 96, 97, 98, 99, 100, 101, 102, 103, 104, 105, 106, 107, 108, 109, 110, 111, 112, 113, 114, 115, 116, 117, 118, 119, 120, 121, 122, 123, 124, 125, 126, 127, 128, 129, 130, 131, 132, 133, 134, 135, 136, 137, 138, 139, 140, 141, 142, 143, 144, 145, 146, 147, 148, 149, 150, 151, 152, 153, 154, 155, 156, 157, 158, 159, 160, 161, 162, 163, 164],
      "LargestImagePixelValue": [1884, 1823, 1794, 1801, 1811, 1808, 1792, 1811, 1808, 1818, 1817, 1803, 1792, 1818, 1794, 1800, 1811, 1817, 1804, 1801, 1809, 1815, 1819, 1817, 1806, 1815, 1807, 1805, 1793, 1829, 1818, 1818, 1812, 1818, 1817, 1832, 1819, 1814, 1811, 1819, 1824, 1825, 1817, 1808, 1836, 1837, 1822, 1832, 1823, 1828, 1815, 1826, 1825, 1806, 1817, 1823, 1830, 1819, 1811, 1816, 1828, 1829, 1827, 1811, 1837, 1813, 1814, 1823, 1821, 1826, 1800, 1845, 1793, 1801, 1804, 1805, 1811, 1799, 1789, 1808, 1815, 1812, 1799, 1816, 1800, 1814, 1817, 1805, 1807, 1796, 1802, 1823, 1813, 1834, 1801, 1780, 1800, 1799, 1811, 1816, 1813, 1791, 1806, 1791, 1800, 1817, 1813, 1788, 1810, 1786, 1803, 1819, 1811, 1805, 1789, 1800, 1795, 1801, 1797, 1778, 1789, 1794, 1797, 1808, 1796, 1788, 1809, 1802, 1808, 1802, 1804, 1795, 1801, 1818, 1808, 1799, 1793, 1793, 1791, 1783, 1783, 1779, 1789, 1805, 1786, 1774, 1788, 1796, 1807, 1794, 1804, 1803, 1793, 1803, 1784, 1774, 1799, 1808, 1787, 1803, 1799, 1783, 1782, 1788],
      "WindowCenter": [723.0, 720.0, 720.0, 719.0, 719.0, 718.0, 718.0, 718.0, 718.0, 718.0, 718.0, 717.0, 718.0, 718.0, 718.0, 718.0, 717.0, 718.0, 718.0, 718.0, 718.0, 719.0, 719.0, 719.0, 719.0, 719.0, 719.0, 719.0, 719.0, 719.0, 719.0, 719.0, 718.0, 718.0, 718.0, 718.0, 718.0, 718.0, 718.0, 718.0, 718.0, 718.0, 719.0, 718.0, 719.0, 718.0, 719.0, 718.0, 719.0, 719.0, 719.0, 719.0, 719.0, 719.0, 718.0, 719.0, 718.0, 718.0, 718.0, 718.0, 718.0, 718.0, 718.0, 718.0, 718.0, 718.0, 719.0, 719.0, 719.0, 719.0, 719.0, 720.0, 720.0, 720.0, 720.0, 720.0, 719.0, 720.0, 720.0, 720.0, 720.0, 720.0, 719.0, 719.0, 719.0, 719.0, 719.0, 719.0, 719.0, 719.0, 719.0, 719.0, 719.0, 720.0, 719.0, 719.0, 720.0, 720.0, 719.0, 719.0, 719.0, 720.0, 719.0, 719.0, 719.0, 718.0, 718.0, 718.0, 718.0, 718.0, 719.0, 718.0, 719.0, 719.0, 719.0, 720.0, 720.0, 721.0, 721.0, 721.0, 720.0, 720.0, 720.0, 720.0, 720.0, 719.0, 719.0, 719.0, 720.0, 720.0, 720.0, 721.0, 721.0, 720.0, 720.0, 720.0, 720.0, 720.0, 721.0, 720.0, 720.0, 719.0, 719.0, 719.0, 719.0, 719.0, 719.0, 718.0, 718.0, 719.0, 719.0, 720.0, 720.0, 720.0, 720.0, 720.0, 721.0, 720.0, 720.0, 720.0, 720.0, 721.0, 721.0, 721.0],
      "WindowWidth": [1584.0, 1576.0, 1574.0, 1572.0, 1571.0, 1568.0, 1569.0, 1568.0, 1569.0, 1570.0, 1569.0, 1568.0, 1569.0, 1568.0, 1568.0, 1569.0, 1568.0, 1569.0, 1569.0, 1569.0, 1571.0, 1573.0, 1574.0, 1572.0, 1572.0, 1573.0, 1572.0, 1571.0, 1573.0, 1572.0, 1571.0, 1572.0, 1570.0, 1569.0, 1569.0, 1570.0, 1570.0, 1570.0, 1570.0, 1571.0, 1568.0, 1570.0, 1571.0, 1570.0, 1571.0, 1571.0, 1572.0, 1571.0, 1571.0, 1571.0, 1572.0, 1572.0, 1572.0, 1571.0, 1570.0, 1572.0, 1570.0, 1569.0, 1570.0, 1569.0, 1568.0, 1570.0, 1569.0, 1570.0, 1571.0, 1571.0, 1572.0, 1573.0, 1573.0, 1573.0, 1573.0, 1574.0, 1574.0, 1575.0, 1575.0, 1574.0, 1573.0, 1574.0, 1574.0, 1574.0, 1574.0, 1574.0, 1573.0, 1572.0, 1572.0, 1572.0, 1572.0, 1572.0, 1572.0, 1572.0, 1573.0, 1573.0, 1573.0, 1575.0, 1573.0, 1573.0, 1575.0, 1575.0, 1573.0, 1574.0, 1574.0, 1574.0, 1573.0, 1572.0, 1572.0, 1570.0, 1569.0, 1570.0, 1571.0, 1570.0, 1571.0, 1571.0, 1572.0, 1574.0, 1574.0, 1575.0, 1575.0, 1577.0, 1578.0, 1577.0, 1576.0, 1576.0, 1574.0, 1575.0, 1574.0, 1574.0, 1574.0, 1574.0, 1574.0, 1574.0, 1576.0, 1577.0, 1577.0, 1575.0, 1574.0, 1575.0, 1574.0, 1576.0, 1577.0, 1575.0, 1575.0, 1572.0, 1571.0, 1571.0, 1571.0, 1571.0, 1571.0, 1571.0, 1570.0, 1574.0, 1572.0, 1575.0, 1575.0, 1575.0, 1574.0, 1575.0, 1577.0, 1575.0, 1574.0, 1575.0, 1577.0, 1578.0, 1580.0, 1578.0]
    },
    "slices": {}
  }
}