{
  "AcquisitionMatrixPE": 64,
  "AcquisitionNumber": 1,
  "AcquisitionTime": "10:21:41.050000",
  "BandwidthPerPixelPhaseEncode": 33.967,
  "BaseResolution": 64,
  "CoilCombinationMethod": "Sum of Squares",
  "CoilString": "C:HEA;HEP",
  "ConversionSoftware": "dcm2niix",
  "ConversionSoftwareVersion": "v1.0.20220720",
  "DerivedVendorReportedEchoSpacing": 0.000460005,
  "DeviceSerialNumber": "35193",
  "DwellTime": 3.1e-06,
  "EchoTime": 0.03,
  "EffectiveEchoSpacing": 0.000460005,
  "FlipAngle": 90,
  "HeudiconvVersion": "1.1.6",
  "ImageOrientationPatientDICOM": [1, 0, 0, 0, 1, 0],
  "ImageOrientationText": "Tra",
  "ImageType": [
    "ORIGINAL",
    "PRIMARY",
    "M",
    "ND",
    "MOSAIC"
],
  "ImagingFrequency": 123.254,
  "InPlanePhaseEncodingDirectionDICOM": "COL",
  "InstitutionAddress": "Xinjiekouwai Street No 19,Beijing,Haidian District,CN,100875",
  "InstitutionName": "BNU MRI Center",
  "InstitutionalDepartmentName": "Department",
  "MRAcquisitionType": "2D",
  "MagneticFieldStrength": 3,
  "Manufacturer": "Siemens",
  "ManufacturersModelName": "TrioTim",
  "MatrixCoilMode": "SENSE",
  "Modality": "MR",
  "NonlinearGradientCorrection": false,
  "PartialFourier": 1,
  "PatientPosition": "HFS",
  "PercentPhaseFOV": 100,
  "PercentSampling": 100,
  "PhaseEncodingDirection": "j-",
  "PhaseEncodingSteps": 64,
  "PhaseResolution": 1,
  "PixelBandwidth": 2520,
  "ProcedureStepDescription": "BNU_cst_2015^Guo.TaoMei",
  "ProtocolName": "ge_func_3x3x4_164",
  "PulseSequenceDetails": "%SiemensSeq%\\ep2d_bold",
  "ReceiveCoilName": "HeadMatrix",
  "ReconMatrixPE": 64,
  "RepetitionTime": 2,
  "SAR": 0.123766,
  "ScanOptions": "FS",
  "ScanningSequence": "EP",
  "SequenceName": "*epfid2d1_64",
  "SequenceVariant": "SK",
  "SeriesDescription": "ge_func_3x3x4_164",
  "SeriesNumber": 2,
  "ShimSetting": [-4496, -19489, -9851, 1248, -97, -488, 89, -18],
  "SliceThickness": 4,
  "SliceTiming": [0, 1.035, 0.0625, 1.095, 0.1225, 1.1575, 0.1825, 1.2175, 0.245, 1.2775, 0.305, 1.34, 0.365, 1.4, 0.4275, 1.46, 0.4875, 1.5225, 0.5475, 1.5825, 0.61, 1.6425, 0.67, 1.705, 0.73, 1.765, 0.7925, 1.825, 0.8525, 1.8875, 0.9125, 1.9475, 0.975],
  "SoftwareVersions": "syngo MR B17",
  "SpacingBetweenSlices": 4.6,
  "StationName": "MRC35193",
  "TaskName": "CognitiveControl",
  "TotalReadoutTime": 0.0289803,
  "TxRefAmp": 313.627,
  "dcmmeta_affine": [
    [-3.125, 0.0, 0.0, 101.34939575195312],
    [0.0, 3.125, 0.0, -90.12801361083984],
    [0.0, 0.0, 4.599999904632568, -70.90120697021484],
    [0.0, 0.0, 0.0, 1.0]
],
  "dcmmeta_reorient_transform": [
    [0.0, -1.0, 0.0, 63.0],
    [1.0, 0.0, 0.0, 0.0],
    [0.0, 0.0, 1.0, 0.0],
    [0.0, 0.0, 0.0, 1.0]
],
  "dcmmeta_shape": [64, 64, 33, 164],
  "dcmmeta_slice_dim": 2,
  "dcmmeta_version": 0.6,
  "global": {
    "const": {
      "AcquisitionMatrix": [64, 0, 0, 64],
      "AngioFlag": "N",
      "BitsAllocated": 16,
      "BitsStored": 12,
      "Columns": 384,
      "EchoNumbers": 1,
      "EchoTime": 30.0,
      "EchoTrainLength": 1,
      "FlipAngle": 90.0,
      "HighBit": 11,
      "ImageOrientationPatient": [1.0, 0.0, 0.0, 0.0, 1.0, 0.0],
      "ImagePositionPatient": [-601.34939754009, -606.74698781967, -70.901206970215],
      "ImageType": [
        "ORIGINAL",
        "PRIMARY",
        "M",
        "ND",
        "MOSAIC"
],
      "ImagedNucleus": "1H",
      "ImagingFrequency": 123.253923,
      "InPlanePhaseEncodingDirection": "COL",
      "MRAcquisitionType": "2D",
      "MagneticFieldStrength": 3.0,
      "Manufacturer": "SIEMENS",
      "ManufacturerModelName": "TrioTim",
      "Modality": "MR",
      "NumberOfAverages": 1.0,
      "NumberOfPhaseEncodingSteps": 64,
      "PercentPhaseFieldOfView": 100.0,
      "PercentSampling": 100.0,
      "PerformedProcedureStepStartTime": "101909.437000",
      "PhotometricInterpretation": "MONOCHROME2",
      "PixelBandwidth": 2520.0,
      "PixelRepresentation": 0,
      "PixelSpacing": [3.125, 3.125],
      "ProtocolName": "ge_func_3x3x4_164",
      "RepetitionTime": 2000.0,
      "Rows": 384,
      "SAR": 0.12376596985769,
      "SamplesPerPixel": 1,
      "ScanOptions": "FS",
      "ScanningSequence": "EP",
      "SequenceName": "*epfid2d1_64",
      "SequenceVariant": "SK",
      "SeriesDescription": "ge_func_3x3x4_164",
      "SeriesNumber": 2,
      "SeriesTime": "102222.843000",
      "SliceLocation": -70.901206970215,
      "SliceThickness": 4.0,
      "SmallestImagePixelValue": 0,
      "SoftwareVersions": "syngo MR B17",
      "SpacingBetweenSlices": 4.6000001430511,
      "SpecificCharacterSet": "ISO_IR 100",
      "StudyID": "1",
      "StudyTime": "101909.359000",
      "TransmitCoilName": "Body",
      "VariableFlipAngleFlag": "N",
      "WindowCenterWidthExplanation": "Algo1",
      "dBdt": 0.0},
    "slices": {}
  },
  "time": {
    "samples": {
      "AcquisitionNumber": [1, 2, 3, 4, 5, 6, 7, 8, 9, 10, 11, 12, 13, 14, 15, 16, 17, 18, 19, 20, 21, 22, 23, 24, 25, 26, 27, 28, 29, 30, 31, 32, 33, 34, 35, 36, 37, 38, 39, 40, 41, 42, 43, 44, 45, 46, 47, 48, 49, 50, 51, 52, 53, 54, 55, 56, 57, 58, 59, 60, 61, 62, 63, 64, 65, 66, 67, 68, 69, 70, 71, 72, 73, 74, 75, 76, 77, 78, 79, 80, 81, 82, 83, 84, 85, 86, 87, 88, 89, 90, 91, 92, 93, 94, 95, 96, 97, 98, 99, 100, 101, 102, 103, 104, 105, 106, 107, 108, 109, 110, 111, 112, 113, 114, 115, 116, 117, 118, 119, 120, 121, 122, 123, 124, 125, 126, 127, 128, 129, 130, 131, 132, 133, 134, 135, 136, 137, 138, 139, 140, 141, 142, 143, 144, 145, 146, 147, 148, 149, 150, 151, 152, 153, 154, 155, 156, 157, 158, 159, 160, 161, 162, 163, 164],
      "AcquisitionTime": ["102141.050000", "102143.057500", "102145.067500", "102147.075000", "102149.082500", "102151.090000", "102153.097500", "102155.107500", "102157.115000", "102159.122500", "102201.130000", "102203.140000", "102205.147500", "102207.155000", "102209.162500", "102211.170000", "102213.180000", "102215.187500", "102217.195000", "102219.202500", "102221.210000", "102223.220000", "102225.227500", "102227.235000", "102229.242500", "102231.252500", "102233.260000", "102235.267500", "102237.275000", "102239.282500", "102241.292500", "102243.300000", "102245.307500", "102247.315000", "102249.322500", "102251.332500", "102253.340000", "102255.347500", "102257.355000", "102259.362500", "102301.372500", "102303.380000", "102305.387500", "102307.395000", "102309.405000", "102311.412500", "102313.420000", "102315.427500", "102317.435000", "102319.445000", "102321.452500", "102323.460000", "102325.467500", "102327.475000", "102329.485000", "102331.492500", "102333.500000", "102335.507500", "102337.517500", "102339.525000", "102341.532500", "102343.540000", "102345.547500", "102347.557500", "102349.565000", "102351.572500", "102353.580000", "102355.587500", "102357.597500", "102359.605000", "102401.612500", "102403.620000", "102405.630000", "102407.637500", "102409.645000", "102411.652500", "102413.660000", "102415.670000", "102417.677500", "102419.685000", "102421.692500", "102423.700000", "102425.710000", "102427.717500", "102429.725000", "102431.732500", "102433.740000", "102435.750000", "102437.757500", "102439.765000", "102441.772500", "102443.782500", "102445.790000", "102447.797500", "102449.805000", "102451.812500", "102453.822500", "102455.830000", "102457.837500", "102459.845000", "102501.852500", "102503.862500", "102505.870000", "102507.877500", "102509.885000", "102511.895000", "102513.902500", "102515.910000", "102517.917500", "102519.925000", "102521.935000", "102523.942500", "102525.950000", "102527.957500", "102529.965000", "102531.975000", "102533.982500", "102535.990000", "102537.997500", "102540.007500", "102542.015000", "102544.022500", "102546.030000", "102548.037500", "102550.047500", "102552.055000", "102554.062500", "102556.070000", "102558.077500", "102600.087500", "102602.095000", "102604.102500", "102606.110000", "102608.117500", "102610.127500", "102612.135000", "102614.142500", "102616.150000", "102618.160000", "102620.167500", "102622.175000", "102624.182500", "102626.190000", "102628.200000", "102630.207500", "102632.215000", "102634.222500", "102636.230000", "102638.240000", "102640.247500", "102642.255000", "102644.262500", "102646.272500", "102648.280000", "102650.287500", "102652.295000", "102654.302500", "102656.312500", "102658.320000", "102700.327500", "102702.335000", "102704.342500", "102706.352500", "102708.360000"],
      "ContentTime": ["102222.859000", "102222.859000", "102222.859000", "102222.859000", "102222.859000", "102222.859000", "102222.859000", "102222.875000", "102222.875000", "102222.875000", "102222.875000", "102222.890000", "102222.890000", "102222.890000", "102222.890000", "102222.890000", "102222.890000", "102222.890000", "102222.890000", "102222.906000", "102302.843000", "102302.843000", "102302.843000", "102302.859000", "102302.859000", "102302.859000", "102302.859000", "102302.859000", "102302.875000", "102302.875000", "102302.875000", "102302.875000", "102302.875000", "102302.875000", "102302.875000", "102302.875000", "102302.875000", "102302.890000", "102302.890000", "102302.890000", "102342.843000", "102342.843000", "102342.843000", "102342.859000", "102342.859000", "102342.859000", "102342.859000", "102342.859000", "102342.875000", "102342.875000", "102342.875000", "102342.875000", "102342.875000", "102342.890000", "102342.890000", "102342.890000", "102342.890000", "102342.890000", "102342.890000", "102342.890000", "102422.843000", "102422.843000", "102422.859000", "102422.859000", "102422.859000", "102422.859000", "102422.859000", "102422.859000", "102422.875000", "102422.875000", "102422.875000", "102422.875000", "102422.890000", "102422.890000", "102422.890000", "102422.890000", "102422.890000", "102422.890000", "102422.906000", "102422.906000", "102502.843000", "102502.843000", "102502.843000", "102502.859000", "102502.859000", "102502.859000", "102502.859000", "102502.875000", "102502.875000", "102502.875000", "102502.875000", "102502.875000", "102502.875000", "102502.875000", "102502.890000", "102502.890000", "102502.890000", "102502.890000", "102502.890000", "102502.890000", "102542.843000", "102542.859000", "102542.859000", "102542.859000", "102542.859000", "102542.859000", "102542.875000", "102542.875000", "102542.875000", "102542.875000", "102542.875000", "102542.875000", "102542.875000", "102542.875000", "102542.890000", "102542.890000", "102542.890000", "102542.890000", "102542.890000", "102542.890000", "102622.843000", "102622.843000", "102622.843000", "102622.859000", "102622.859000", "102622.859000", "102622.859000", "102622.859000", "102622.859000", "102622.859000", "102622.859000", "102622.875000", "102622.875000", "102622.875000", "102622.875000", "102622.875000", "102622.875000", "102622.875000", "102622.875000", "102622.875000", "102702.843000", "102702.859000", "102702.859000", "102702.859000", "102702.859000", "102702.875000", "102702.875000", "102702.875000", "102702.875000", "102702.875000", "102702.875000", "102702.875000", "102702.875000", "102702.890000", "102702.890000", "102702.890000", "102702.890000", "102702.890000", "102702.890000", "102702.890000", "102710.078000", "102710.093000", "102710.093000", "102710.093000"],
      "InstanceCreationTime": ["102222.859000", "102222.859000", "102222.859000", "102222.859000", "102222.859000", "102222.859000", "102222.859000", "102222.875000", "102222.875000", "102222.875000", "102222.875000", "102222.890000", "102222.890000", "102222.890000", "102222.890000", "102222.890000", "102222.890000", "102222.890000", "102222.890000", "102222.906000", "102302.843000", "102302.843000", "102302.843000", "102302.859000", "102302.859000", "102302.859000", "102302.859000", "102302.859000", "102302.875000", "102302.875000", "102302.875000", "102302.875000", "102302.875000", "102302.875000", "102302.875000", "102302.875000", "102302.875000", "102302.890000", "102302.890000", "102302.890000", "102342.843000", "102342.843000", "102342.843000", "102342.859000", "102342.859000", "102342.859000", "102342.859000", "102342.859000", "102342.875000", "102342.875000", "102342.875000", "102342.875000", "102342.875000", "102342.890000", "102342.890000", "102342.890000", "102342.890000", "102342.890000", "102342.890000", "102342.890000", "102422.843000", "102422.843000", "102422.859000", "102422.859000", "102422.859000", "102422.859000", "102422.859000", "102422.859000", "102422.875000", "102422.875000", "102422.875000", "102422.875000", "102422.890000", "102422.890000", "102422.890000", "102422.890000", "102422.890000", "102422.890000", "102422.906000", "102422.906000", "102502.843000", "102502.843000", "102502.843000", "102502.859000", "102502.859000", "102502.859000", "102502.859000", "102502.875000", "102502.875000", "102502.875000", "102502.875000", "102502.875000", "102502.875000", "102502.875000", "102502.890000", "102502.890000", "102502.890000", "102502.890000", "102502.890000", "102502.890000", "102542.843000", "102542.859000", "102542.859000", "102542.859000", "102542.859000", "102542.859000", "102542.875000", "102542.875000", "102542.875000", "102542.875000", "102542.875000", "102542.875000", "102542.875000", "102542.875000", "102542.890000", "102542.890000", "102542.890000", "102542.890000", "102542.890000", "102542.890000", "102622.843000", "102622.843000", "102622.843000", "102622.859000", "102622.859000", "102622.859000", "102622.859000", "102622.859000", "102622.859000", "102622.859000", "102622.859000", "102622.875000", "102622.875000", "102622.875000", "102622.875000", "102622.875000", "102622.875000", "102622.875000", "102622.875000", "102622.875000", "102702.843000", "102702.859000", "102702.859000", "102702.859000", "102702.859000", "102702.875000", "102702.875000", "102702.875000", "102702.875000", "102702.875000", "102702.875000", "102702.875000", "102702.875000", "102702.890000", "102702.890000", "102702.890000", "102702.890000", "102702.890000", "102702.890000", "102702.890000", "102710.078000", "102710.093000", "102710.093000", "102710.093000"],
      "InstanceNumber": [1, 2, 3, 4, 5, 6, 7, 8, 9, 10, 11, 12, 13, 14, 15, 16, 17, 18, 19, 20, 21, 22, 23, 24, 25, 26, 27, 28, 29, 30, 31, 32, 33, 34, 35, 36, 37, 38, 39, 40, 41, 42, 43, 44, 45, 46, 47, 48, 49, 50, 51, 52, 53, 54, 55, 56, 57, 58, 59, 60, 61, 62, 63, 64, 65, 66, 67, 68, 69, 70, 71, 72, 73, 74, 75, 76, 77, 78, 79, 80, 81, 82, 83, 84, 85, 86, 87, 88, 89, 90, 91, 92, 93, 94, 95, 96, 97, 98, 99, 100, 101, 102, 103, 104, 105, 106, 107, 108, 109, 110, 111, 112, 113, 114, 115, 116, 117, 118, 119, 120, 121, 122, 123, 124, 125, 126, 127, 128, 129, 130, 131, 132, 133, 134, 135, 136, 137, 138, 139, 140, 141, 142, 143, 144, 145, 146, 147, 148, 149, 150, 151, 152, 153, 154, 155, 156, 157, 158, 159, 160, 161, 162, 163, 164],
      "LargestImagePixelValue": [1741, 1690, 1683, 1673, 1678, 1666, 1698, 1669, 1676, 1668, 1677, 1688, 1702, 1677, 1689, 1687, 1689, 1668, 1690, 1675, 1688, 1686, 1680, 1678, 1679, 1666, 1675, 1683, 1678, 1671, 1667, 1682, 1676, 1684, 1686, 1668, 1669, 1687, 1687, 1677, 1675, 1677, 1665, 1669, 1675, 1678, 1664, 1678, 1671, 1680, 1674, 1670, 1675, 1692, 1671, 1686, 1679, 1677, 1694, 1684, 1673, 1676, 1669, 1687, 1661, 1669, 1664, 1671, 1679, 1692, 1666, 1674, 1686, 1673, 1677, 1680, 1702, 1712, 1677, 1692, 1683, 1685, 1702, 1687, 1682, 1684, 1695, 1689, 1698, 1685, 1688, 1698, 1705, 1706, 1684, 1695, 1686, 1690, 1698, 1687, 1691, 1710, 1707, 1696, 1713, 1713, 1695, 1703, 1699, 1703, 1686, 1690, 1714, 1692, 1717, 1712, 1698, 1698, 1697, 1704, 1708, 1698, 1701, 1698, 1687, 1728, 1710, 1707, 1706, 1713, 1726, 1722, 1713, 1724, 1713, 1714, 1724, 1731, 1726, 1723, 1726, 1730, 1732, 1738, 1721, 1754, 1739, 1734, 1731, 1735, 1731, 1739, 1737, 1727, 1729, 1739, 1743, 1738, 1735, 1738, 1746, 1742, 1734, 1744],
      "WindowCenter": [715.0, 713.0, 713.0, 713.0, 713.0, 712.0, 712.0, 712.0, 712.0, 713.0, 713.0, 714.0, 714.0, 714.0, 714.0, 714.0, 714.0, 714.0, 714.0, 713.0, 713.0, 713.0, 713.0, 713.0, 713.0, 713.0, 712.0, 712.0, 712.0, 712.0, 712.0, 712.0, 713.0, 712.0, 713.0, 713.0, 713.0, 713.0, 713.0, 713.0, 713.0, 713.0, 713.0, 712.0, 712.0, 713.0, 713.0, 713.0, 712.0, 712.0, 712.0, 712.0, 712.0, 712.0, 712.0, 712.0, 712.0, 713.0, 714.0, 714.0, 714.0, 713.0, 713.0, 714.0, 713.0, 713.0, 713.0, 713.0, 713.0, 713.0, 714.0, 714.0, 713.0, 713.0, 714.0, 714.0, 715.0, 715.0, 715.0, 715.0, 714.0, 715.0, 715.0, 714.0, 715.0, 714.0, 714.0, 714.0, 714.0, 714.0, 714.0, 714.0, 713.0, 713.0, 713.0, 713.0, 714.0, 714.0, 714.0, 713.0, 714.0, 714.0, 714.0, 714.0, 714.0, 714.0, 713.0, 713.0, 713.0, 714.0, 714.0, 714.0, 714.0, 714.0, 714.0, 714.0, 714.0, 714.0, 715.0, 715.0, 714.0, 714.0, 714.0, 714.0, 714.0, 715.0, 714.0, 715.0, 715.0, 715.0, 715.0, 715.0, 715.0, 715.0, 715.0, 715.0, 715.0, 716.0, 715.0, 715.0, 714.0, 715.0, 715.0, 714.0, 714.0, 714.0, 714.0, 714.0, 713.0, 714.0, 714.0, 714.0, 714.0, 715.0, 715.0, 715.0, 715.0, 715.0, 715.0, 715.0, 715.0, 714.0, 715.0, 715.0],
      "WindowWidth": [1562.0, 1555.0, 1554.0, 1555.0, 1554.0, 1552.0, 1553.0, 1552.0, 1554.0, 1554.0, 1555.0, 1557.0, 1557.0, 1557.0, 1558.0, 1558.0, 1557.0, 1557.0, 1557.0, 1556.0, 1555.0, 1555.0, 1555.0, 1554.0, 1554.0, 1554.0, 1553.0, 1552.0, 1552.0, 1553.0, 1553.0, 1553.0, 1553.0, 1552.0, 1554.0, 1556.0, 1554.0, 1554.0, 1555.0, 1556.0, 1555.0, 1554.0, 1554.0, 1554.0, 1553.0, 1554.0, 1554.0, 1554.0, 1553.0, 1554.0, 1552.0, 1552.0, 1552.0, 1553.0, 1553.0, 1553.0, 1553.0, 1555.0, 1557.0, 1558.0, 1558.0, 1556.0, 1555.0, 1558.0, 1556.0, 1555.0, 1554.0, 1555.0, 1554.0, 1555.0, 1557.0, 1557.0, 1555.0, 1555.0, 1558.0, 1559.0, 1560.0, 1561.0, 1560.0, 1560.0, 1559.0, 1560.0, 1559.0, 1559.0, 1560.0, 1559.0, 1559.0, 1559.0, 1558.0, 1559.0, 1557.0, 1557.0, 1556.0, 1555.0, 1554.0, 1556.0, 1558.0, 1559.0, 1557.0, 1557.0, 1559.0, 1558.0, 1559.0, 1558.0, 1557.0, 1557.0, 1556.0, 1556.0, 1556.0, 1558.0, 1558.0, 1558.0, 1557.0, 1558.0, 1558.0, 1558.0, 1559.0, 1559.0, 1560.0, 1560.0, 1559.0, 1557.0, 1559.0, 1559.0, 1559.0, 1559.0, 1559.0, 1560.0, 1561.0, 1559.0, 1561.0, 1561.0, 1560.0, 1561.0, 1560.0, 1562.0, 1562.0, 1562.0, 1560.0, 1559.0, 1559.0, 1560.0, 1560.0, 1559.0, 1557.0, 1558.0, 1558.0, 1557.0, 1556.0, 1557.0, 1557.0, 1557.0, 1559.0, 1559.0, 1559.0, 1561.0, 1562.0, 1561.0, 1561.0, 1561.0, 1560.0, 1559.0, 1561.0, 1561.0]
    },
    "slices": {}
  }
}