{
  "AcquisitionMatrixPE": 64,
  "AcquisitionNumber": 1,
  "AcquisitionTime": "13:11:29.327500",
  "BandwidthPerPixelPhaseEncode": 33.967,
  "BaseResolution": 64,
  "CoilCombinationMethod": "Sum of Squares",
  "CoilString": "C:HEA;HEP",
  "ConversionSoftware": "dcm2niix",
  "ConversionSoftwareVersion": "v1.0.20220720",
  "DerivedVendorReportedEchoSpacing": 0.000460005,
  "DeviceSerialNumber": "35193",
  "DwellTime": 3.1e-06,
  "EchoTime": 0.03,
  "EffectiveEchoSpacing": 0.000460005,
  "FlipAngle": 90,
  "HeudiconvVersion": "1.1.6",
  "ImageOrientationPatientDICOM": [0.999473, -0.0191975, 0.0261721, 0.0191909, 0.999816, 0.00050253],
  "ImageOrientationText": "Tra>Sag(1.5)",
  "ImageType": [
    "ORIGINAL",
    "PRIMARY",
    "M",
    "ND",
    "MOSAIC"
],
  "ImagingFrequency": 123.254,
  "InPlanePhaseEncodingDirectionDICOM": "COL",
  "InstitutionAddress": "Xinjiekouwai Street No 19,Beijing,Haidian District,CN,100875",
  "InstitutionName": "BNU MRI Center",
  "InstitutionalDepartmentName": "Department",
  "MRAcquisitionType": "2D",
  "MagneticFieldStrength": 3,
  "Manufacturer": "Siemens",
  "ManufacturersModelName": "TrioTim",
  "MatrixCoilMode": "SENSE",
  "Modality": "MR",
  "NonlinearGradientCorrection": false,
  "PartialFourier": 1,
  "PatientPosition": "HFS",
  "PercentPhaseFOV": 100,
  "PercentSampling": 100,
  "PhaseEncodingDirection": "j-",
  "PhaseEncodingSteps": 64,
  "PhaseResolution": 1,
  "PixelBandwidth": 2520,
  "ProcedureStepDescription": "BNU_cst_2015^Guo.TaoMei",
  "ProtocolName": "ge_func_3x3x4_164",
  "PulseSequenceDetails": "%SiemensSeq%\\ep2d_bold",
  "ReceiveCoilName": "HeadMatrix",
  "ReconMatrixPE": 64,
  "RepetitionTime": 2,
  "SAR": 0.147237,
  "ScanOptions": "FS",
  "ScanningSequence": "EP",
  "SequenceName": "*epfid2d1_64",
  "SequenceVariant": "SK",
  "SeriesDescription": "ge_func_3x3x4_164",
  "SeriesNumber": 4,
  "ShimSetting": [-4506, -19310, -9813, 1077, -223, -61, 269, 19],
  "SliceThickness": 4,
  "SliceTiming": [0, 1.035, 0.0625, 1.095, 0.1225, 1.1575, 0.1825, 1.2175, 0.245, 1.2775, 0.305, 1.34, 0.365, 1.4, 0.4275, 1.46, 0.4875, 1.5225, 0.5475, 1.5825, 0.61, 1.6425, 0.67, 1.705, 0.73, 1.765, 0.7925, 1.825, 0.8525, 1.8875, 0.9125, 1.9475, 0.975],
  "SoftwareVersions": "syngo MR B17",
  "SpacingBetweenSlices": 4.6,
  "StationName": "MRC35193",
  "TaskName": "CognitiveControl",
  "TotalReadoutTime": 0.0289803,
  "TxRefAmp": 344.995,
  "dcmmeta_affine": [
    [-3.1233534812927246, 0.059971537441015244, 0.12041395902633667, 109.65554809570312],
    [0.059992093592882156, 3.1244239807128906, -3.4192839670765807e-09, -94.05400085449219],
    [0.08178789168596268, -0.0015704076504334807, 4.598423480987549, -59.275840759277344],
    [0.0, 0.0, 0.0, 1.0]
],
  "dcmmeta_reorient_transform": [
    [0.0, -1.0, 0.0, 63.0],
    [1.0, 0.0, 0.0, 0.0],
    [0.0, 0.0, 1.0, 0.0],
    [0.0, 0.0, 0.0, 1.0]
],
  "dcmmeta_shape": [64, 64, 33, 164],
  "dcmmeta_slice_dim": 2,
  "dcmmeta_version": 0.6,
  "global": {
    "const": {
      "AcquisitionMatrix": [64, 0, 0, 64],
      "AngioFlag": "N",
      "BitsAllocated": 16,
      "BitsStored": 12,
      "Columns": 384,
      "EchoNumbers": 1,
      "EchoTime": 30.0,
      "EchoTrainLength": 1,
      "FlipAngle": 90.0,
      "HighBit": 11,
      "ImageOrientationPatient": [0.99947309971033, -0.0191974701251, 0.0261721244116, 0.01919089165087, 0.99981571158929, 0.00050253044397],
      "ImagePositionPatient": [-622.76574711164, -593.09383620926, -72.712102636246],
      "ImageType": [
        "ORIGINAL",
        "PRIMARY",
        "M",
        "ND",
        "MOSAIC"
],
      "ImagedNucleus": "1H",
      "ImagingFrequency": 123.253681,
      "InPlanePhaseEncodingDirection": "COL",
      "MRAcquisitionType": "2D",
      "MagneticFieldStrength": 3.0,
      "Manufacturer": "SIEMENS",
      "ManufacturerModelName": "TrioTim",
      "Modality": "MR",
      "NumberOfAverages": 1.0,
      "NumberOfPhaseEncodingSteps": 64,
      "PercentPhaseFieldOfView": 100.0,
      "PercentSampling": 100.0,
      "PerformedProcedureStepStartTime": "125542.640000",
      "PhotometricInterpretation": "MONOCHROME2",
      "PixelBandwidth": 2520.0,
      "PixelRepresentation": 0,
      "PixelSpacing": [3.125, 3.125],
      "ProtocolName": "ge_func_3x3x4_164",
      "RepetitionTime": 2000.0,
      "Rows": 384,
      "SAR": 0.14723665114498,
      "SamplesPerPixel": 1,
      "ScanOptions": "FS",
      "ScanningSequence": "EP",
      "SequenceName": "*epfid2d1_64",
      "SequenceVariant": "SK",
      "SeriesDescription": "ge_func_3x3x4_164",
      "SeriesNumber": 4,
      "SeriesTime": "131223.578000",
      "SliceLocation": -56.385079562002,
      "SliceThickness": 4.0,
      "SmallestImagePixelValue": 0,
      "SoftwareVersions": "syngo MR B17",
      "SpacingBetweenSlices": 4.5999999052582,
      "SpecificCharacterSet": "ISO_IR 100",
      "StudyID": "1",
      "StudyTime": "125542.562000",
      "TransmitCoilName": "Body",
      "VariableFlipAngleFlag": "N",
      "WindowCenterWidthExplanation": "Algo1",
      "dBdt": 0.0},
    "slices": {}
  },
  "time": {
    "samples": {
      "AcquisitionNumber": [1, 2, 3, 4, 5, 6, 7, 8, 9, 10, 11, 12, 13, 14, 15, 16, 17, 18, 19, 20, 21, 22, 23, 24, 25, 26, 27, 28, 29, 30, 31, 32, 33, 34, 35, 36, 37, 38, 39, 40, 41, 42, 43, 44, 45, 46, 47, 48, 49, 50, 51, 52, 53, 54, 55, 56, 57, 58, 59, 60, 61, 62, 63, 64, 65, 66, 67, 68, 69, 70, 71, 72, 73, 74, 75, 76, 77, 78, 79, 80, 81, 82, 83, 84, 85, 86, 87, 88, 89, 90, 91, 92, 93, 94, 95, 96, 97, 98, 99, 100, 101, 102, 103, 104, 105, 106, 107, 108, 109, 110, 111, 112, 113, 114, 115, 116, 117, 118, 119, 120, 121, 122, 123, 124, 125, 126, 127, 128, 129, 130, 131, 132, 133, 134, 135, 136, 137, 138, 139, 140, 141, 142, 143, 144, 145, 146, 147, 148, 149, 150, 151, 152, 153, 154, 155, 156, 157, 158, 159, 160, 161, 162, 163, 164],
      "AcquisitionTime": ["131129.327500", "131131.335000", "131133.345000", "131135.352500", "131137.360000", "131139.367500", "131141.375000", "131143.385000", "131145.392500", "131147.400000", "131149.407500", "131151.417500", "131153.425000", "131155.432500", "131157.440000", "131159.447500", "131201.457500", "131203.465000", "131205.472500", "131207.480000", "131209.487500", "131211.497500", "131213.505000", "131215.512500", "131217.520000", "131219.530000", "131221.537500", "131223.545000", "131225.552500", "131227.560000", "131229.570000", "131231.577500", "131233.585000", "131235.592500", "131237.600000", "131239.610000", "131241.617500", "131243.625000", "131245.632500", "131247.642500", "131249.650000", "131251.657500", "131253.665000", "131255.672500", "131257.682500", "131259.690000", "131301.697500", "131303.705000", "131305.712500", "131307.722500", "131309.730000", "131311.737500", "131313.745000", "131315.752500", "131317.762500", "131319.770000", "131321.777500", "131323.785000", "131325.795000", "131327.802500", "131329.810000", "131331.817500", "131333.825000", "131335.835000", "131337.842500", "131339.850000", "131341.857500", "131343.865000", "131345.875000", "131347.882500", "131349.890000", "131351.897500", "131353.907500", "131355.915000", "131357.922500", "131359.930000", "131401.937500", "131403.947500", "131405.955000", "131407.962500", "131409.970000", "131411.977500", "131413.987500", "131415.995000", "131418.002500", "131420.010000", "131422.020000", "131424.027500", "131426.035000", "131428.042500", "131430.050000", "131432.060000", "131434.067500", "131436.075000", "131438.082500", "131440.090000", "131442.100000", "131444.107500", "131446.115000", "131448.122500", "131450.130000", "131452.140000", "131454.147500", "131456.155000", "131458.162500", "131500.172500", "131502.180000", "131504.187500", "131506.195000", "131508.202500", "131510.212500", "131512.220000", "131514.227500", "131516.235000", "131518.242500", "131520.252500", "131522.260000", "131524.267500", "131526.275000", "131528.285000", "131530.292500", "131532.300000", "131534.307500", "131536.315000", "131538.325000", "131540.332500", "131542.340000", "131544.347500", "131546.355000", "131548.365000", "131550.372500", "131552.380000", "131554.387500", "131556.397500", "131558.405000", "131600.412500", "131602.420000", "131604.427500", "131606.437500", "131608.445000", "131610.452500", "131612.460000", "131614.467500", "131616.477500", "131618.485000", "131620.492500", "131622.500000", "131624.507500", "131626.517500", "131628.525000", "131630.532500", "131632.540000", "131634.550000", "131636.557500", "131638.565000", "131640.572500", "131642.580000", "131644.590000", "131646.597500", "131648.605000", "131650.612500", "131652.620000", "131654.630000", "131656.637500"],
      "ContentTime": ["131223.578000", "131223.578000", "131223.578000", "131223.578000", "131223.593000", "131223.593000", "131223.593000", "131223.593000", "131223.593000", "131223.593000", "131223.593000", "131223.593000", "131223.609000", "131223.609000", "131223.609000", "131223.609000", "131223.609000", "131223.609000", "131223.609000", "131223.609000", "131223.625000", "131223.625000", "131223.625000", "131223.625000", "131223.640000", "131223.640000", "131303.578000", "131303.578000", "131303.578000", "131303.578000", "131303.593000", "131303.593000", "131303.593000", "131303.593000", "131303.593000", "131303.593000", "131303.593000", "131303.593000", "131303.609000", "131303.609000", "131303.609000", "131303.609000", "131303.609000", "131303.609000", "131303.609000", "131303.609000", "131343.578000", "131343.578000", "131343.578000", "131343.578000", "131343.578000", "131343.593000", "131343.593000", "131343.593000", "131343.593000", "131343.609000", "131343.609000", "131343.609000", "131343.609000", "131343.609000", "131343.609000", "131343.609000", "131343.625000", "131343.625000", "131343.625000", "131343.625000", "131423.562000", "131423.578000", "131423.578000", "131423.578000", "131423.578000", "131423.578000", "131423.593000", "131423.593000", "131423.593000", "131423.593000", "131423.593000", "131423.593000", "131423.609000", "131423.609000", "131423.609000", "131423.609000", "131423.625000", "131423.625000", "131423.625000", "131423.625000", "131503.578000", "131503.578000", "131503.578000", "131503.578000", "131503.593000", "131503.593000", "131503.593000", "131503.593000", "131503.593000", "131503.593000", "131503.593000", "131503.593000", "131503.609000", "131503.609000", "131503.609000", "131503.609000", "131503.609000", "131503.609000", "131503.609000", "131503.609000", "131543.578000", "131543.578000", "131543.578000", "131543.578000", "131543.578000", "131543.578000", "131543.578000", "131543.593000", "131543.593000", "131543.593000", "131543.593000", "131543.593000", "131543.593000", "131543.593000", "131543.593000", "131543.609000", "131543.609000", "131543.609000", "131543.609000", "131543.609000", "131623.578000", "131623.578000", "131623.578000", "131623.578000", "131623.593000", "131623.593000", "131623.593000", "131623.593000", "131623.593000", "131623.593000", "131623.593000", "131623.593000", "131623.609000", "131623.609000", "131623.609000", "131623.609000", "131623.609000", "131623.609000", "131623.609000", "131623.609000", "131657.734000", "131657.750000", "131657.750000", "131657.750000", "131657.750000", "131657.750000", "131657.750000", "131657.750000", "131657.750000", "131657.750000", "131657.765000", "131657.765000", "131657.765000", "131657.765000", "131657.765000", "131657.765000", "131657.765000", "131657.765000"],
      "InstanceCreationTime": ["131223.578000", "131223.578000", "131223.578000", "131223.578000", "131223.593000", "131223.593000", "131223.593000", "131223.593000", "131223.593000", "131223.593000", "131223.593000", "131223.593000", "131223.609000", "131223.609000", "131223.609000", "131223.609000", "131223.609000", "131223.609000", "131223.609000", "131223.609000", "131223.625000", "131223.625000", "131223.625000", "131223.625000", "131223.640000", "131223.640000", "131303.578000", "131303.578000", "131303.578000", "131303.578000", "131303.593000", "131303.593000", "131303.593000", "131303.593000", "131303.593000", "131303.593000", "131303.593000", "131303.593000", "131303.609000", "131303.609000", "131303.609000", "131303.609000", "131303.609000", "131303.609000", "131303.609000", "131303.609000", "131343.578000", "131343.578000", "131343.578000", "131343.578000", "131343.578000", "131343.593000", "131343.593000", "131343.593000", "131343.593000", "131343.609000", "131343.609000", "131343.609000", "131343.609000", "131343.609000", "131343.609000", "131343.609000", "131343.625000", "131343.625000", "131343.625000", "131343.625000", "131423.562000", "131423.578000", "131423.578000", "131423.578000", "131423.578000", "131423.578000", "131423.593000", "131423.593000", "131423.593000", "131423.593000", "131423.593000", "131423.593000", "131423.609000", "131423.609000", "131423.609000", "131423.609000", "131423.625000", "131423.625000", "131423.625000", "131423.625000", "131503.578000", "131503.578000", "131503.578000", "131503.578000", "131503.593000", "131503.593000", "131503.593000", "131503.593000", "131503.593000", "131503.593000", "131503.593000", "131503.593000", "131503.609000", "131503.609000", "131503.609000", "131503.609000", "131503.609000", "131503.609000", "131503.609000", "131503.609000", "131543.578000", "131543.578000", "131543.578000", "131543.578000", "131543.578000", "131543.578000", "131543.578000", "131543.593000", "131543.593000", "131543.593000", "131543.593000", "131543.593000", "131543.593000", "131543.593000", "131543.593000", "131543.609000", "131543.609000", "131543.609000", "131543.609000", "131543.609000", "131623.578000", "131623.578000", "131623.578000", "131623.578000", "131623.593000", "131623.593000", "131623.593000", "131623.593000", "131623.593000", "131623.593000", "131623.593000", "131623.593000", "131623.609000", "131623.609000", "131623.609000", "131623.609000", "131623.609000", "131623.609000", "131623.609000", "131623.609000", "131657.734000", "131657.750000", "131657.750000", "131657.750000", "131657.750000", "131657.750000", "131657.750000", "131657.750000", "131657.750000", "131657.750000", "131657.765000", "131657.765000", "131657.765000", "131657.765000", "131657.765000", "131657.765000", "131657.765000", "131657.765000"],
      "InstanceNumber": [1, 2, 3, 4, 5, 6, 7, 8, 9, 10, 11, 12, 13, 14, 15, 16, 17, 18, 19, 20, 21, 22, 23, 24, 25, 26, 27, 28, 29, 30, 31, 32, 33, 34, 35, 36, 37, 38, 39, 40, 41, 42, 43, 44, 45, 46, 47, 48, 49, 50, 51, 52, 53, 54, 55, 56, 57, 58, 59, 60, 61, 62, 63, 64, 65, 66, 67, 68, 69, 70, 71, 72, 73, 74, 75, 76, 77, 78, 79, 80, 81, 82, 83, 84, 85, 86, 87, 88, 89, 90, 91, 92, 93, 94, 95, 96, 97, 98, 99, 100, 101, 102, 103, 104, 105, 106, 107, 108, 109, 110, 111, 112, 113, 114, 115, 116, 117, 118, 119, 120, 121, 122, 123, 124, 125, 126, 127, 128, 129, 130, 131, 132, 133, 134, 135, 136, 137, 138, 139, 140, 141, 142, 143, 144, 145, 146, 147, 148, 149, 150, 151, 152, 153, 154, 155, 156, 157, 158, 159, 160, 161, 162, 163, 164],
      "LargestImagePixelValue": [1918, 1867, 1857, 1834, 1845, 1838, 1840, 1842, 1833, 1841, 1847, 1838, 1843, 1849, 1845, 1862, 1868, 1845, 1846, 1852, 1858, 1850, 1848, 1838, 1852, 1856, 1842, 1856, 1847, 1862, 1846, 1843, 1851, 1833, 1811, 1818, 1825, 1826, 1834, 1833, 1839, 1835, 1836, 1854, 1851, 1861, 1842, 1851, 1862, 1850, 1836, 1868, 1839, 1848, 1851, 1847, 1842, 1837, 1850, 1851, 1841, 1832, 1871, 1844, 1845, 1841, 1850, 1830, 1833, 1836, 1839, 1828, 1839, 1842, 1815, 1834, 1853, 1862, 1826, 1837, 1854, 1836, 1814, 1826, 1825, 1828, 1813, 1836, 1832, 1847, 1849, 1819, 1844, 1836, 1853, 1844, 1820, 1824, 1843, 1840, 1836, 1852, 1839, 1813, 1843, 1831, 1846, 1874, 1841, 1834, 1829, 1863, 1861, 1883, 1836, 1859, 1871, 1845, 1861, 1827, 1837, 1850, 1850, 1848, 1852, 1858, 1821, 1823, 1833, 1814, 1839, 1856, 1865, 1863, 1845, 1881, 1902, 1830, 1834, 1811, 1826, 1829, 1833, 1812, 1834, 1857, 1852, 1861, 1849, 1857, 1845, 1838, 1850, 1844, 1867, 1820, 1830, 1845, 1856, 1839, 1850, 1853, 1864, 1834],
      "WindowCenter": [771.0, 768.0, 768.0, 768.0, 767.0, 767.0, 768.0, 767.0, 767.0, 768.0, 767.0, 768.0, 768.0, 767.0, 767.0, 767.0, 767.0, 767.0, 767.0, 767.0, 767.0, 767.0, 767.0, 767.0, 767.0, 767.0, 766.0, 768.0, 767.0, 767.0, 766.0, 765.0, 764.0, 763.0, 763.0, 763.0, 763.0, 764.0, 765.0, 767.0, 767.0, 767.0, 768.0, 768.0, 767.0, 767.0, 767.0, 768.0, 768.0, 768.0, 768.0, 768.0, 768.0, 768.0, 768.0, 768.0, 768.0, 768.0, 767.0, 767.0, 766.0, 767.0, 767.0, 767.0, 767.0, 767.0, 767.0, 767.0, 767.0, 767.0, 766.0, 767.0, 767.0, 767.0, 766.0, 767.0, 767.0, 767.0, 767.0, 767.0, 768.0, 767.0, 767.0, 767.0, 767.0, 767.0, 767.0, 767.0, 767.0, 767.0, 766.0, 766.0, 767.0, 767.0, 767.0, 766.0, 766.0, 766.0, 766.0, 767.0, 766.0, 766.0, 766.0, 767.0, 767.0, 767.0, 767.0, 767.0, 766.0, 767.0, 766.0, 767.0, 767.0, 767.0, 767.0, 767.0, 767.0, 767.0, 767.0, 767.0, 767.0, 767.0, 766.0, 766.0, 766.0, 766.0, 765.0, 766.0, 766.0, 766.0, 767.0, 768.0, 767.0, 767.0, 768.0, 768.0, 767.0, 767.0, 766.0, 766.0, 766.0, 767.0, 767.0, 767.0, 768.0, 767.0, 767.0, 767.0, 767.0, 767.0, 767.0, 766.0, 766.0, 766.0, 766.0, 765.0, 766.0, 767.0, 768.0, 767.0, 767.0, 767.0, 767.0, 767.0],
      "WindowWidth": [1686.0, 1679.0, 1678.0, 1676.0, 1675.0, 1673.0, 1676.0, 1675.0, 1675.0, 1676.0, 1674.0, 1677.0, 1676.0, 1675.0, 1676.0, 1673.0, 1674.0, 1674.0, 1676.0, 1676.0, 1676.0, 1675.0, 1675.0, 1675.0, 1675.0, 1674.0, 1673.0, 1676.0, 1676.0, 1675.0, 1673.0, 1670.0, 1666.0, 1663.0, 1663.0, 1664.0, 1664.0, 1666.0, 1670.0, 1674.0, 1676.0, 1676.0, 1677.0, 1678.0, 1676.0, 1675.0, 1676.0, 1678.0, 1677.0, 1677.0, 1677.0, 1678.0, 1677.0, 1677.0, 1679.0, 1678.0, 1677.0, 1677.0, 1675.0, 1674.0, 1673.0, 1674.0, 1675.0, 1674.0, 1674.0, 1674.0, 1674.0, 1674.0, 1675.0, 1673.0, 1673.0, 1673.0, 1675.0, 1675.0, 1672.0, 1675.0, 1674.0, 1675.0, 1675.0, 1675.0, 1676.0, 1674.0, 1673.0, 1673.0, 1675.0, 1675.0, 1674.0, 1675.0, 1676.0, 1674.0, 1672.0, 1671.0, 1673.0, 1674.0, 1673.0, 1671.0, 1670.0, 1671.0, 1672.0, 1673.0, 1672.0, 1672.0, 1672.0, 1673.0, 1673.0, 1673.0, 1674.0, 1675.0, 1672.0, 1673.0, 1672.0, 1674.0, 1674.0, 1675.0, 1674.0, 1674.0, 1675.0, 1674.0, 1674.0, 1673.0, 1675.0, 1673.0, 1672.0, 1670.0, 1671.0, 1671.0, 1669.0, 1671.0, 1672.0, 1672.0, 1675.0, 1675.0, 1673.0, 1674.0, 1675.0, 1677.0, 1674.0, 1673.0, 1671.0, 1670.0, 1670.0, 1673.0, 1672.0, 1672.0, 1675.0, 1674.0, 1674.0, 1674.0, 1674.0, 1675.0, 1673.0, 1672.0, 1672.0, 1670.0, 1670.0, 1669.0, 1670.0, 1673.0, 1676.0, 1674.0, 1672.0, 1673.0, 1674.0, 1673.0]
    },
    "slices": {}
  }
}