{
  "AcquisitionMatrixPE": 64,
  "AcquisitionNumber": 1,
  "AcquisitionTime": "12:10:16.970000",
  "BandwidthPerPixelPhaseEncode": 33.967,
  "BaseResolution": 64,
  "CoilCombinationMethod": "Sum of Squares",
  "CoilString": "C:HEA;HEP",
  "ConversionSoftware": "dcm2niix",
  "ConversionSoftwareVersion": "v1.0.20220720",
  "DerivedVendorReportedEchoSpacing": 0.000460005,
  "DeviceSerialNumber": "35193",
  "DwellTime": 3.1e-06,
  "EchoTime": 0.03,
  "EffectiveEchoSpacing": 0.000460005,
  "FlipAngle": 90,
  "HeudiconvVersion": "1.1.6",
  "ImageOrientationPatientDICOM": [1, 0, 0, 0, 1, 0],
  "ImageOrientationText": "Tra",
  "ImageType": [
    "ORIGINAL",
    "PRIMARY",
    "M",
    "ND",
    "MOSAIC"
],
  "ImagingFrequency": 123.254,
  "InPlanePhaseEncodingDirectionDICOM": "COL",
  "InstitutionAddress": "Xinjiekouwai Street No 19,Beijing,Haidian District,CN,100875",
  "InstitutionName": "BNU MRI Center",
  "InstitutionalDepartmentName": "Department",
  "MRAcquisitionType": "2D",
  "MagneticFieldStrength": 3,
  "Manufacturer": "Siemens",
  "ManufacturersModelName": "TrioTim",
  "MatrixCoilMode": "SENSE",
  "Modality": "MR",
  "NonlinearGradientCorrection": false,
  "PartialFourier": 1,
  "PatientPosition": "HFS",
  "PercentPhaseFOV": 100,
  "PercentSampling": 100,
  "PhaseEncodingDirection": "j-",
  "PhaseEncodingSteps": 64,
  "PhaseResolution": 1,
  "PixelBandwidth": 2520,
  "ProcedureStepDescription": "BNU_cst_2015^Guo.TaoMei",
  "ProtocolName": "ge_func_3x3x4_164",
  "PulseSequenceDetails": "%SiemensSeq%\\ep2d_bold",
  "ReceiveCoilName": "HeadMatrix",
  "ReconMatrixPE": 64,
  "RepetitionTime": 2,
  "SAR": 0.133858,
  "ScanOptions": "FS",
  "ScanningSequence": "EP",
  "SequenceName": "*epfid2d1_64",
  "SequenceVariant": "SK",
  "SeriesDescription": "ge_func_3x3x4_164",
  "SeriesNumber": 2,
  "ShimSetting": [-4537, -19399, -9842, 1063, -94, -454, -103, 35],
  "SliceThickness": 4,
  "SliceTiming": [0, 1.035, 0.0625, 1.095, 0.1225, 1.1575, 0.1825, 1.2175, 0.245, 1.2775, 0.305, 1.34, 0.365, 1.4, 0.4275, 1.46, 0.4875, 1.5225, 0.5475, 1.5825, 0.61, 1.6425, 0.67, 1.705, 0.73, 1.765, 0.7925, 1.825, 0.8525, 1.8875, 0.9125, 1.9475, 0.975],
  "SoftwareVersions": "syngo MR B17",
  "SpacingBetweenSlices": 4.6,
  "StationName": "MRC35193",
  "TaskName": "CognitiveControl",
  "TotalReadoutTime": 0.0289803,
  "TxRefAmp": 310.406,
  "dcmmeta_affine": [
    [-3.125, 0.0, 0.0, 99.32530212402344],
    [0.0, 3.125, 0.0, -96.20030212402344],
    [0.0, 0.0, 4.599999904632568, -61.455421447753906],
    [0.0, 0.0, 0.0, 1.0]
],
  "dcmmeta_reorient_transform": [
    [0.0, -1.0, 0.0, 63.0],
    [1.0, 0.0, 0.0, 0.0],
    [0.0, 0.0, 1.0, 0.0],
    [0.0, 0.0, 0.0, 1.0]
],
  "dcmmeta_shape": [64, 64, 33, 164],
  "dcmmeta_slice_dim": 2,
  "dcmmeta_version": 0.6,
  "global": {
    "const": {
      "AcquisitionMatrix": [64, 0, 0, 64],
      "AngioFlag": "N",
      "BitsAllocated": 16,
      "BitsStored": 12,
      "Columns": 384,
      "EchoNumbers": 1,
      "EchoTime": 30.0,
      "EchoTrainLength": 1,
      "FlipAngle": 90.0,
      "HighBit": 11,
      "ImageOrientationPatient": [1.0, 0.0, 0.0, 0.0, 1.0, 0.0],
      "ImagePositionPatient": [-599.32530122995, -600.67469877005, -61.455421447754],
      "ImageType": [
        "ORIGINAL",
        "PRIMARY",
        "M",
        "ND",
        "MOSAIC"
],
      "ImagedNucleus": "1H",
      "ImagingFrequency": 123.253913,
      "InPlanePhaseEncodingDirection": "COL",
      "MRAcquisitionType": "2D",
      "MagneticFieldStrength": 3.0,
      "Manufacturer": "SIEMENS",
      "ManufacturerModelName": "TrioTim",
      "Modality": "MR",
      "NumberOfAverages": 1.0,
      "NumberOfPhaseEncodingSteps": 64,
      "PercentPhaseFieldOfView": 100.0,
      "PercentSampling": 100.0,
      "PerformedProcedureStepStartTime": "120756.234000",
      "PhotometricInterpretation": "MONOCHROME2",
      "PixelBandwidth": 2520.0,
      "PixelRepresentation": 0,
      "PixelSpacing": [3.125, 3.125],
      "ProtocolName": "ge_func_3x3x4_164",
      "RepetitionTime": 2000.0,
      "Rows": 384,
      "SAR": 0.13385809424282,
      "SamplesPerPixel": 1,
      "ScanOptions": "FS",
      "ScanningSequence": "EP",
      "SequenceName": "*epfid2d1_64",
      "SequenceVariant": "SK",
      "SeriesDescription": "ge_func_3x3x4_164",
      "SeriesNumber": 2,
      "SeriesTime": "121107.109000",
      "SliceLocation": -61.455421447754,
      "SliceThickness": 4.0,
      "SmallestImagePixelValue": 0,
      "SoftwareVersions": "syngo MR B17",
      "SpacingBetweenSlices": 4.5999999046326,
      "SpecificCharacterSet": "ISO_IR 100",
      "StudyID": "1",
      "StudyTime": "120756.140000",
      "TransmitCoilName": "Body",
      "VariableFlipAngleFlag": "N",
      "WindowCenterWidthExplanation": "Algo1",
      "dBdt": 0.0},
    "slices": {}
  },
  "time": {
    "samples": {
      "AcquisitionNumber": [1, 2, 3, 4, 5, 6, 7, 8, 9, 10, 11, 12, 13, 14, 15, 16, 17, 18, 19, 20, 21, 22, 23, 24, 25, 26, 27, 28, 29, 30, 31, 32, 33, 34, 35, 36, 37, 38, 39, 40, 41, 42, 43, 44, 45, 46, 47, 48, 49, 50, 51, 52, 53, 54, 55, 56, 57, 58, 59, 60, 61, 62, 63, 64, 65, 66, 67, 68, 69, 70, 71, 72, 73, 74, 75, 76, 77, 78, 79, 80, 81, 82, 83, 84, 85, 86, 87, 88, 89, 90, 91, 92, 93, 94, 95, 96, 97, 98, 99, 100, 101, 102, 103, 104, 105, 106, 107, 108, 109, 110, 111, 112, 113, 114, 115, 116, 117, 118, 119, 120, 121, 122, 123, 124, 125, 126, 127, 128, 129, 130, 131, 132, 133, 134, 135, 136, 137, 138, 139, 140, 141, 142, 143, 144, 145, 146, 147, 148, 149, 150, 151, 152, 153, 154, 155, 156, 157, 158, 159, 160, 161, 162, 163, 164],
      "AcquisitionTime": ["121016.970000", "121018.977500", "121020.987500", "121022.995000", "121025.002500", "121027.010000", "121029.017500", "121031.027500", "121033.035000", "121035.042500", "121037.050000", "121039.060000", "121041.067500", "121043.075000", "121045.082500", "121047.090000", "121049.100000", "121051.107500", "121053.115000", "121055.122500", "121057.130000", "121059.140000", "121101.147500", "121103.155000", "121105.162500", "121107.172500", "121109.180000", "121111.187500", "121113.195000", "121115.202500", "121117.212500", "121119.220000", "121121.227500", "121123.235000", "121125.242500", "121127.252500", "121129.260000", "121131.267500", "121133.275000", "121135.282500", "121137.292500", "121139.300000", "121141.307500", "121143.315000", "121145.325000", "121147.332500", "121149.340000", "121151.347500", "121153.355000", "121155.365000", "121157.372500", "121159.380000", "121201.387500", "121203.395000", "121205.405000", "121207.412500", "121209.420000", "121211.427500", "121213.437500", "121215.445000", "121217.452500", "121219.460000", "121221.467500", "121223.477500", "121225.485000", "121227.492500", "121229.500000", "121231.507500", "121233.517500", "121235.525000", "121237.532500", "121239.540000", "121241.550000", "121243.557500", "121245.565000", "121247.572500", "121249.580000", "121251.590000", "121253.597500", "121255.605000", "121257.612500", "121259.620000", "121301.630000", "121303.637500", "121305.645000", "121307.652500", "121309.662500", "121311.670000", "121313.677500", "121315.685000", "121317.692500", "121319.702500", "121321.710000", "121323.717500", "121325.725000", "121327.732500", "121329.742500", "121331.750000", "121333.757500", "121335.765000", "121337.772500", "121339.782500", "121341.790000", "121343.797500", "121345.805000", "121347.815000", "121349.822500", "121351.830000", "121353.837500", "121355.845000", "121357.855000", "121359.862500", "121401.870000", "121403.877500", "121405.885000", "121407.895000", "121409.902500", "121411.910000", "121413.917500", "121415.927500", "121417.935000", "121419.942500", "121421.950000", "121423.957500", "121425.967500", "121427.975000", "121429.982500", "121431.990000", "121433.997500", "121436.007500", "121438.015000", "121440.022500", "121442.030000", "121444.040000", "121446.047500", "121448.055000", "121450.062500", "121452.070000", "121454.080000", "121456.087500", "121458.095000", "121500.102500", "121502.110000", "121504.120000", "121506.127500", "121508.135000", "121510.142500", "121512.150000", "121514.160000", "121516.167500", "121518.175000", "121520.182500", "121522.192500", "121524.200000", "121526.207500", "121528.215000", "121530.222500", "121532.232500", "121534.240000", "121536.247500", "121538.255000", "121540.262500", "121542.272500", "121544.280000"],
      "ContentTime": ["121107.125000", "121107.125000", "121107.125000", "121107.125000", "121107.125000", "121107.125000", "121107.125000", "121107.140000", "121107.140000", "121107.140000", "121107.140000", "121107.140000", "121107.140000", "121107.156000", "121107.156000", "121107.156000", "121107.156000", "121107.156000", "121107.156000", "121107.156000", "121107.156000", "121107.171000", "121107.171000", "121107.171000", "121147.109000", "121147.109000", "121147.109000", "121147.125000", "121147.125000", "121147.125000", "121147.125000", "121147.125000", "121147.125000", "121147.125000", "121147.125000", "121147.140000", "121147.140000", "121147.140000", "121147.140000", "121147.140000", "121147.140000", "121147.140000", "121147.140000", "121147.156000", "121227.109000", "121227.109000", "121227.109000", "121227.125000", "121227.125000", "121227.125000", "121227.125000", "121227.125000", "121227.125000", "121227.125000", "121227.140000", "121227.140000", "121227.140000", "121227.140000", "121227.156000", "121227.156000", "121227.156000", "121227.156000", "121227.156000", "121227.156000", "121307.109000", "121307.109000", "121307.109000", "121307.125000", "121307.125000", "121307.125000", "121307.125000", "121307.125000", "121307.125000", "121307.140000", "121307.140000", "121307.140000", "121307.140000", "121307.140000", "121307.140000", "121307.140000", "121307.140000", "121307.156000", "121307.156000", "121307.156000", "121327.109000", "121327.109000", "121327.109000", "121327.125000", "121327.125000", "121327.125000", "121327.125000", "121327.125000", "121327.125000", "121327.125000", "121407.109000", "121407.125000", "121407.140000", "121407.140000", "121407.140000", "121407.140000", "121407.140000", "121407.140000", "121407.140000", "121407.140000", "121407.156000", "121407.156000", "121407.156000", "121407.156000", "121407.156000", "121407.156000", "121407.156000", "121407.156000", "121407.171000", "121407.171000", "121447.109000", "121447.109000", "121447.109000", "121447.125000", "121447.125000", "121447.125000", "121447.125000", "121447.125000", "121447.125000", "121447.140000", "121447.140000", "121447.140000", "121447.140000", "121447.140000", "121447.140000", "121447.140000", "121447.156000", "121447.156000", "121447.156000", "121447.156000", "121527.109000", "121527.109000", "121527.109000", "121527.125000", "121527.125000", "121527.125000", "121527.125000", "121527.125000", "121527.125000", "121527.140000", "121527.140000", "121527.140000", "121527.140000", "121527.140000", "121527.140000", "121527.140000", "121527.140000", "121527.156000", "121527.156000", "121527.156000", "121545.875000", "121545.875000", "121545.875000", "121545.890000", "121545.890000", "121545.890000", "121545.890000", "121545.890000", "121545.890000", "121545.906000"],
      "InstanceCreationTime": ["121107.125000", "121107.125000", "121107.125000", "121107.125000", "121107.125000", "121107.125000", "121107.125000", "121107.140000", "121107.140000", "121107.140000", "121107.140000", "121107.140000", "121107.140000", "121107.156000", "121107.156000", "121107.156000", "121107.156000", "121107.156000", "121107.156000", "121107.156000", "121107.156000", "121107.171000", "121107.171000", "121107.171000", "121147.109000", "121147.109000", "121147.109000", "121147.125000", "121147.125000", "121147.125000", "121147.125000", "121147.125000", "121147.125000", "121147.125000", "121147.125000", "121147.140000", "121147.140000", "121147.140000", "121147.140000", "121147.140000", "121147.140000", "121147.140000", "121147.140000", "121147.156000", "121227.109000", "121227.109000", "121227.109000", "121227.125000", "121227.125000", "121227.125000", "121227.125000", "121227.125000", "121227.125000", "121227.125000", "121227.140000", "121227.140000", "121227.140000", "121227.140000", "121227.156000", "121227.156000", "121227.156000", "121227.156000", "121227.156000", "121227.156000", "121307.109000", "121307.109000", "121307.109000", "121307.125000", "121307.125000", "121307.125000", "121307.125000", "121307.125000", "121307.125000", "121307.140000", "121307.140000", "121307.140000", "121307.140000", "121307.140000", "121307.140000", "121307.140000", "121307.140000", "121307.156000", "121307.156000", "121307.156000", "121327.109000", "121327.109000", "121327.109000", "121327.125000", "121327.125000", "121327.125000", "121327.125000", "121327.125000", "121327.125000", "121327.125000", "121407.109000", "121407.125000", "121407.140000", "121407.140000", "121407.140000", "121407.140000", "121407.140000", "121407.140000", "121407.140000", "121407.140000", "121407.156000", "121407.156000", "121407.156000", "121407.156000", "121407.156000", "121407.156000", "121407.156000", "121407.156000", "121407.171000", "121407.171000", "121447.109000", "121447.109000", "121447.109000", "121447.125000", "121447.125000", "121447.125000", "121447.125000", "121447.125000", "121447.125000", "121447.140000", "121447.140000", "121447.140000", "121447.140000", "121447.140000", "121447.140000", "121447.140000", "121447.156000", "121447.156000", "121447.156000", "121447.156000", "121527.109000", "121527.109000", "121527.109000", "121527.125000", "121527.125000", "121527.125000", "121527.125000", "121527.125000", "121527.125000", "121527.140000", "121527.140000", "121527.140000", "121527.140000", "121527.140000", "121527.140000", "121527.140000", "121527.140000", "121527.156000", "121527.156000", "121527.156000", "121545.875000", "121545.875000", "121545.875000", "121545.890000", "121545.890000", "121545.890000", "121545.890000", "121545.890000", "121545.890000", "121545.906000"],
      "InstanceNumber": [1, 2, 3, 4, 5, 6, 7, 8, 9, 10, 11, 12, 13, 14, 15, 16, 17, 18, 19, 20, 21, 22, 23, 24, 25, 26, 27, 28, 29, 30, 31, 32, 33, 34, 35, 36, 37, 38, 39, 40, 41, 42, 43, 44, 45, 46, 47, 48, 49, 50, 51, 52, 53, 54, 55, 56, 57, 58, 59, 60, 61, 62, 63, 64, 65, 66, 67, 68, 69, 70, 71, 72, 73, 74, 75, 76, 77, 78, 79, 80, 81, 82, 83, 84, 85, 86, 87, 88, 89, 90, 91, 92, 93, 94, 95, 96, 97, 98, 99, 100, 101, 102, 103, 104, 105, 106, 107, 108, 109, 110, 111, 112, 113, 114, 115, 116, 117, 118, 119, 120, 121, 122, 123, 124, 125, 126, 127, 128, 129, 130, 131, 132, 133, 134, 135, 136, 137, 138, 139, 140, 141, 142, 143, 144, 145, 146, 147, 148, 149, 150, 151, 152, 153, 154, 155, 156, 157, 158, 159, 160, 161, 162, 163, 164],
      "LargestImagePixelValue": [1942, 1889, 1864, 1869, 1823, 1817, 1831, 1860, 1885, 1845, 1856, 1882, 1857, 1845, 1852, 1866, 1896, 1855, 1858, 1874, 1882, 1863, 1877, 1856, 1877, 1868, 1888, 1899, 1858, 1872, 1901, 1906, 1908, 1863, 1872, 1869, 1881, 1915, 1882, 1890, 1869, 1900, 1903, 1898, 1891, 1906, 1830, 1878, 1904, 1898, 1878, 1880, 1881, 1899, 1887, 1888, 1900, 1920, 1933, 1911, 1873, 1881, 1896, 1887, 1886, 1882, 1912, 1905, 1874, 1872, 1908, 1855, 1874, 1890, 1864, 1880, 1922, 1912, 1912, 1850, 1914, 1919, 1910, 1917, 1911, 1914, 1931, 1920, 1888, 1876, 1912, 1940, 1938, 1883, 1915, 1927, 1932, 1916, 1927, 1923, 1935, 1914, 1903, 1923, 1929, 1914, 1933, 1923, 1911, 1881, 1916, 1939, 1933, 1881, 1897, 1925, 1933, 1909, 1894, 1895, 1915, 1891, 1912, 1896, 1912, 1880, 1901, 1910, 1899, 1896, 1904, 1904, 1919, 1899, 1916, 1906, 1924, 1928, 1928, 1928, 1907, 1957, 1934, 1918, 1915, 1925, 1931, 1934, 1929, 1927, 1927, 1940, 1922, 1922, 1906, 1924, 1913, 1930, 1923, 1911, 1906, 1918, 1923, 1927],
      "WindowCenter": [725.0, 722.0, 722.0, 721.0, 720.0, 720.0, 721.0, 722.0, 722.0, 722.0, 723.0, 723.0, 722.0, 720.0, 721.0, 721.0, 722.0, 722.0, 721.0, 721.0, 721.0, 720.0, 720.0, 721.0, 721.0, 721.0, 722.0, 722.0, 722.0, 722.0, 723.0, 723.0, 722.0, 721.0, 722.0, 722.0, 723.0, 723.0, 721.0, 721.0, 721.0, 722.0, 722.0, 721.0, 721.0, 721.0, 721.0, 722.0, 722.0, 722.0, 722.0, 723.0, 723.0, 723.0, 722.0, 723.0, 724.0, 724.0, 723.0, 722.0, 722.0, 722.0, 722.0, 722.0, 723.0, 723.0, 723.0, 722.0, 721.0, 722.0, 722.0, 723.0, 723.0, 723.0, 722.0, 723.0, 723.0, 722.0, 722.0, 722.0, 724.0, 725.0, 725.0, 724.0, 724.0, 724.0, 724.0, 723.0, 722.0, 723.0, 724.0, 724.0, 724.0, 723.0, 723.0, 724.0, 724.0, 724.0, 724.0, 723.0, 724.0, 724.0, 724.0, 724.0, 724.0, 724.0, 724.0, 724.0, 724.0, 724.0, 725.0, 724.0, 723.0, 723.0, 724.0, 724.0, 724.0, 724.0, 724.0, 725.0, 725.0, 725.0, 724.0, 724.0, 724.0, 724.0, 724.0, 723.0, 723.0, 723.0, 723.0, 724.0, 723.0, 723.0, 724.0, 725.0, 723.0, 723.0, 723.0, 724.0, 724.0, 725.0, 724.0, 724.0, 724.0, 725.0, 725.0, 725.0, 725.0, 725.0, 725.0, 724.0, 724.0, 724.0, 725.0, 725.0, 725.0, 725.0, 725.0, 724.0, 724.0, 724.0, 724.0, 724.0],
      "WindowWidth": [1578.0, 1570.0, 1568.0, 1565.0, 1563.0, 1564.0, 1567.0, 1568.0, 1568.0, 1569.0, 1572.0, 1571.0, 1568.0, 1564.0, 1565.0, 1566.0, 1568.0, 1568.0, 1567.0, 1565.0, 1565.0, 1564.0, 1564.0, 1567.0, 1566.0, 1566.0, 1568.0, 1567.0, 1568.0, 1569.0, 1571.0, 1570.0, 1568.0, 1566.0, 1568.0, 1570.0, 1571.0, 1571.0, 1567.0, 1565.0, 1566.0, 1569.0, 1569.0, 1567.0, 1566.0, 1566.0, 1567.0, 1569.0, 1569.0, 1568.0, 1570.0, 1571.0, 1572.0, 1570.0, 1568.0, 1572.0, 1574.0, 1575.0, 1572.0, 1570.0, 1568.0, 1568.0, 1569.0, 1570.0, 1572.0, 1572.0, 1571.0, 1568.0, 1567.0, 1568.0, 1568.0, 1571.0, 1572.0, 1572.0, 1570.0, 1571.0, 1571.0, 1569.0, 1568.0, 1570.0, 1576.0, 1577.0, 1577.0, 1574.0, 1575.0, 1576.0, 1574.0, 1570.0, 1568.0, 1571.0, 1575.0, 1575.0, 1573.0, 1571.0, 1572.0, 1575.0, 1575.0, 1574.0, 1573.0, 1573.0, 1574.0, 1575.0, 1576.0, 1575.0, 1575.0, 1575.0, 1575.0, 1574.0, 1574.0, 1575.0, 1577.0, 1574.0, 1573.0, 1572.0, 1575.0, 1574.0, 1574.0, 1574.0, 1576.0, 1577.0, 1578.0, 1576.0, 1575.0, 1574.0, 1574.0, 1574.0, 1575.0, 1572.0, 1572.0, 1571.0, 1573.0, 1574.0, 1573.0, 1573.0, 1575.0, 1576.0, 1573.0, 1572.0, 1572.0, 1574.0, 1575.0, 1577.0, 1576.0, 1575.0, 1575.0, 1577.0, 1579.0, 1578.0, 1576.0, 1577.0, 1577.0, 1575.0, 1574.0, 1574.0, 1577.0, 1578.0, 1578.0, 1578.0, 1577.0, 1575.0, 1574.0, 1574.0, 1574.0, 1574.0]
    },
    "slices": {}
  }
}