{
  "AcquisitionMatrixPE": 64,
  "AcquisitionNumber": 1,
  "AcquisitionTime": "16:37:56.645000",
  "BandwidthPerPixelPhaseEncode": 33.967,
  "BaseResolution": 64,
  "CoilCombinationMethod": "Sum of Squares",
  "CoilString": "C:HEA;HEP",
  "ConversionSoftware": "dcm2niix",
  "ConversionSoftwareVersion": "v1.0.20220720",
  "DerivedVendorReportedEchoSpacing": 0.000460005,
  "DeviceSerialNumber": "35193",
  "DwellTime": 3.1e-06,
  "EchoTime": 0.03,
  "EffectiveEchoSpacing": 0.000460005,
  "FlipAngle": 90,
  "HeudiconvVersion": "1.1.6",
  "ImageOrientationPatientDICOM": [1, 0, 0, 0, 1, 0],
  "ImageOrientationText": "Tra",
  "ImageType": [
    "ORIGINAL",
    "PRIMARY",
    "M",
    "ND",
    "MOSAIC"
],
  "ImagingFrequency": 123.254,
  "InPlanePhaseEncodingDirectionDICOM": "COL",
  "InstitutionAddress": "Xinjiekouwai Street No 19,Beijing,Haidian District,CN,100875",
  "InstitutionName": "BNU MRI Center",
  "InstitutionalDepartmentName": "Department",
  "MRAcquisitionType": "2D",
  "MagneticFieldStrength": 3,
  "Manufacturer": "Siemens",
  "ManufacturersModelName": "TrioTim",
  "MatrixCoilMode": "SENSE",
  "Modality": "MR",
  "NonlinearGradientCorrection": false,
  "PartialFourier": 1,
  "PatientPosition": "HFS",
  "PercentPhaseFOV": 100,
  "PercentSampling": 100,
  "PhaseEncodingDirection": "j-",
  "PhaseEncodingSteps": 64,
  "PhaseResolution": 1,
  "PixelBandwidth": 2520,
  "ProcedureStepDescription": "BNU_cst_2015^Guo.TaoMei",
  "ProtocolName": "ge_func_3x3x4_164",
  "PulseSequenceDetails": "%SiemensSeq%\\ep2d_bold",
  "ReceiveCoilName": "HeadMatrix",
  "ReconMatrixPE": 64,
  "RepetitionTime": 2,
  "SAR": 0.145143,
  "ScanOptions": "FS",
  "ScanningSequence": "EP",
  "SequenceName": "*epfid2d1_64",
  "SequenceVariant": "SK",
  "SeriesDescription": "ge_func_3x3x4_164",
  "SeriesNumber": 4,
  "ShimSetting": [-4488, -19446, -9802, 1211, -145, -312, -114, -202],
  "SliceThickness": 4,
  "SliceTiming": [0, 1.035, 0.0625, 1.095, 0.1225, 1.1575, 0.1825, 1.2175, 0.245, 1.2775, 0.305, 1.34, 0.365, 1.4, 0.4275, 1.46, 0.4875, 1.5225, 0.5475, 1.5825, 0.61, 1.6425, 0.67, 1.705, 0.73, 1.765, 0.7925, 1.825, 0.8525, 1.8875, 0.9125, 1.9475, 0.975],
  "SoftwareVersions": "syngo MR B17",
  "SpacingBetweenSlices": 4.6,
  "StationName": "MRC35193",
  "TaskName": "LanguageControl",
  "TotalReadoutTime": 0.0289803,
  "TxRefAmp": 327.36,
  "dcmmeta_affine": [
    [-3.125, 0.0, 0.0, 106.74698638916016],
    [0.0, 3.125, 0.0, -67.1882553100586],
    [0.0, 0.0, 4.599999904632568, -43.91325378417969],
    [0.0, 0.0, 0.0, 1.0]
],
  "dcmmeta_reorient_transform": [
    [0.0, -1.0, 0.0, 63.0],
    [1.0, 0.0, 0.0, 0.0],
    [0.0, 0.0, 1.0, 0.0],
    [0.0, 0.0, 0.0, 1.0]
],
  "dcmmeta_shape": [64, 64, 33, 164],
  "dcmmeta_slice_dim": 2,
  "dcmmeta_version": 0.6,
  "global": {
    "const": {
      "AcquisitionMatrix": [64, 0, 0, 64],
      "AngioFlag": "N",
      "BitsAllocated": 16,
      "BitsStored": 12,
      "Columns": 384,
      "EchoNumbers": 1,
      "EchoTime": 30.0,
      "EchoTrainLength": 1,
      "FlipAngle": 90.0,
      "HighBit": 11,
      "ImageOrientationPatient": [1.0, 0.0, 0.0, 0.0, 1.0, 0.0],
      "ImagePositionPatient": [-606.74698781967, -629.68674659729, -43.91325378418],
      "ImageType": [
        "ORIGINAL",
        "PRIMARY",
        "M",
        "ND",
        "MOSAIC"
],
      "ImagedNucleus": "1H",
      "ImagingFrequency": 123.253677,
      "InPlanePhaseEncodingDirection": "COL",
      "MRAcquisitionType": "2D",
      "MagneticFieldStrength": 3.0,
      "Manufacturer": "SIEMENS",
      "ManufacturerModelName": "TrioTim",
      "Modality": "MR",
      "NumberOfAverages": 1.0,
      "NumberOfPhaseEncodingSteps": 64,
      "PercentPhaseFieldOfView": 100.0,
      "PercentSampling": 100.0,
      "PerformedProcedureStepStartTime": "162004.750000",
      "PhotometricInterpretation": "MONOCHROME2",
      "PixelBandwidth": 2520.0,
      "PixelRepresentation": 0,
      "PixelSpacing": [3.125, 3.125],
      "ProtocolName": "ge_func_3x3x4_164",
      "RepetitionTime": 2000.0,
      "Rows": 384,
      "SAR": 0.14514315230077,
      "SamplesPerPixel": 1,
      "ScanOptions": "FS",
      "ScanningSequence": "EP",
      "SequenceName": "*epfid2d1_64",
      "SequenceVariant": "SK",
      "SeriesDescription": "ge_func_3x3x4_164",
      "SeriesNumber": 4,
      "SeriesTime": "163853.546000",
      "SliceLocation": -43.91325378418,
      "SliceThickness": 4.0,
      "SmallestImagePixelValue": 0,
      "SoftwareVersions": "syngo MR B17",
      "SpacingBetweenSlices": 4.6000001430511,
      "SpecificCharacterSet": "ISO_IR 100",
      "StudyID": "1",
      "StudyTime": "162004.671000",
      "TransmitCoilName": "Body",
      "VariableFlipAngleFlag": "N",
      "WindowCenterWidthExplanation": "Algo1",
      "dBdt": 0.0},
    "slices": {}
  },
  "time": {
    "samples": {
      "AcquisitionNumber": [1, 2, 3, 4, 5, 6, 7, 8, 9, 10, 11, 12, 13, 14, 15, 16, 17, 18, 19, 20, 21, 22, 23, 24, 25, 26, 27, 28, 29, 30, 31, 32, 33, 34, 35, 36, 37, 38, 39, 40, 41, 42, 43, 44, 45, 46, 47, 48, 49, 50, 51, 52, 53, 54, 55, 56, 57, 58, 59, 60, 61, 62, 63, 64, 65, 66, 67, 68, 69, 70, 71, 72, 73, 74, 75, 76, 77, 78, 79, 80, 81, 82, 83, 84, 85, 86, 87, 88, 89, 90, 91, 92, 93, 94, 95, 96, 97, 98, 99, 100, 101, 102, 103, 104, 105, 106, 107, 108, 109, 110, 111, 112, 113, 114, 115, 116, 117, 118, 119, 120, 121, 122, 123, 124, 125, 126, 127, 128, 129, 130, 131, 132, 133, 134, 135, 136, 137, 138, 139, 140, 141, 142, 143, 144, 145, 146, 147, 148, 149, 150, 151, 152, 153, 154, 155, 156, 157, 158, 159, 160, 161, 162, 163, 164],
      "AcquisitionTime": ["163756.645000", "163758.655000", "163800.662500", "163802.670000", "163804.677500", "163806.685000", "163808.695000", "163810.702500", "163812.710000", "163814.717500", "163816.725000", "163818.735000", "163820.742500", "163822.750000", "163824.757500", "163826.765000", "163828.775000", "163830.782500", "163832.790000", "163834.797500", "163836.807500", "163838.815000", "163840.822500", "163842.830000", "163844.837500", "163846.847500", "163848.855000", "163850.862500", "163852.870000", "163854.877500", "163856.887500", "163858.895000", "163900.902500", "163902.910000", "163904.920000", "163906.927500", "163908.935000", "163910.942500", "163912.950000", "163914.960000", "163916.967500", "163918.975000", "163920.982500", "163922.990000", "163925.000000", "163927.007500", "163929.015000", "163931.022500", "163933.032500", "163935.040000", "163937.047500", "163939.055000", "163941.062500", "163943.072500", "163945.080000", "163947.087500", "163949.095000", "163951.102500", "163953.112500", "163955.120000", "163957.127500", "163959.135000", "164001.142500", "164003.152500", "164005.160000", "164007.167500", "164009.175000", "164011.185000", "164013.192500", "164015.200000", "164017.207500", "164019.215000", "164021.225000", "164023.232500", "164025.240000", "164027.247500", "164029.255000", "164031.265000", "164033.272500", "164035.280000", "164037.287500", "164039.297500", "164041.305000", "164043.312500", "164045.320000", "164047.327500", "164049.337500", "164051.345000", "164053.352500", "164055.360000", "164057.367500", "164059.377500", "164101.385000", "164103.392500", "164105.400000", "164107.410000", "164109.417500", "164111.425000", "164113.432500", "164115.440000", "164117.450000", "164119.457500", "164121.465000", "164123.472500", "164125.480000", "164127.490000", "164129.497500", "164131.505000", "164133.512500", "164135.520000", "164137.530000", "164139.537500", "164141.545000", "164143.552500", "164145.562500", "164147.570000", "164149.577500", "164151.585000", "164153.592500", "164155.602500", "164157.610000", "164159.617500", "164201.625000", "164203.632500", "164205.642500", "164207.650000", "164209.657500", "164211.665000", "164213.675000", "164215.682500", "164217.690000", "164219.697500", "164221.705000", "164223.715000", "164225.722500", "164227.730000", "164229.737500", "164231.745000", "164233.755000", "164235.762500", "164237.770000", "164239.777500", "164241.787500", "164243.795000", "164245.802500", "164247.810000", "164249.817500", "164251.827500", "164253.835000", "164255.842500", "164257.850000", "164259.857500", "164301.867500", "164303.875000", "164305.882500", "164307.890000", "164309.897500", "164311.907500", "164313.915000", "164315.922500", "164317.930000", "164319.940000", "164321.947500", "164323.955000"],
      "ContentTime": ["163853.546000", "163853.546000", "163853.546000", "163853.546000", "163853.562000", "163853.562000", "163853.562000", "163853.562000", "163853.562000", "163853.562000", "163853.562000", "163853.562000", "163853.562000", "163853.578000", "163853.578000", "163853.578000", "163853.578000", "163853.593000", "163853.593000", "163853.593000", "163853.593000", "163853.593000", "163853.593000", "163853.593000", "163853.593000", "163853.593000", "163853.609000", "163913.546000", "163913.546000", "163913.546000", "163913.546000", "163913.546000", "163913.546000", "163913.546000", "163913.546000", "163913.562000", "163913.562000", "163953.546000", "163953.546000", "163953.546000", "163953.546000", "163953.546000", "163953.546000", "163953.546000", "163953.546000", "163953.562000", "163953.562000", "163953.562000", "163953.562000", "163953.562000", "163953.562000", "163953.562000", "163953.562000", "163953.578000", "163953.578000", "163953.578000", "163953.593000", "164033.546000", "164033.546000", "164033.546000", "164033.546000", "164033.546000", "164033.546000", "164033.562000", "164033.562000", "164033.562000", "164033.562000", "164033.562000", "164033.562000", "164033.578000", "164033.578000", "164033.578000", "164033.578000", "164033.578000", "164033.578000", "164033.578000", "164033.578000", "164113.546000", "164113.546000", "164113.546000", "164113.546000", "164113.546000", "164113.546000", "164113.562000", "164113.562000", "164113.562000", "164113.562000", "164113.578000", "164113.578000", "164113.578000", "164113.578000", "164113.578000", "164113.593000", "164113.593000", "164113.593000", "164113.593000", "164113.593000", "164153.546000", "164153.546000", "164153.546000", "164153.546000", "164153.546000", "164153.546000", "164153.546000", "164153.562000", "164153.562000", "164153.562000", "164153.562000", "164153.562000", "164153.578000", "164153.578000", "164153.578000", "164153.578000", "164153.578000", "164153.578000", "164153.578000", "164153.578000", "164233.546000", "164233.546000", "164233.546000", "164233.546000", "164233.546000", "164233.562000", "164233.562000", "164233.562000", "164233.562000", "164233.562000", "164233.562000", "164233.562000", "164233.562000", "164233.578000", "164233.578000", "164233.578000", "164233.578000", "164233.578000", "164233.578000", "164233.578000", "164313.546000", "164313.546000", "164313.546000", "164313.546000", "164313.546000", "164313.546000", "164313.546000", "164313.546000", "164313.562000", "164313.562000", "164313.562000", "164313.562000", "164313.562000", "164313.562000", "164313.562000", "164313.562000", "164313.578000", "164313.578000", "164313.578000", "164313.578000", "164325.734000", "164325.734000", "164325.750000", "164325.750000", "164325.750000", "164325.750000", "164325.750000"],
      "InstanceCreationTime": ["163853.546000", "163853.546000", "163853.546000", "163853.546000", "163853.562000", "163853.562000", "163853.562000", "163853.562000", "163853.562000", "163853.562000", "163853.562000", "163853.562000", "163853.562000", "163853.578000", "163853.578000", "163853.578000", "163853.578000", "163853.593000", "163853.593000", "163853.593000", "163853.593000", "163853.593000", "163853.593000", "163853.593000", "163853.593000", "163853.593000", "163853.609000", "163913.546000", "163913.546000", "163913.546000", "163913.546000", "163913.546000", "163913.546000", "163913.546000", "163913.546000", "163913.562000", "163913.562000", "163953.546000", "163953.546000", "163953.546000", "163953.546000", "163953.546000", "163953.546000", "163953.546000", "163953.546000", "163953.562000", "163953.562000", "163953.562000", "163953.562000", "163953.562000", "163953.562000", "163953.562000", "163953.562000", "163953.578000", "163953.578000", "163953.578000", "163953.593000", "164033.546000", "164033.546000", "164033.546000", "164033.546000", "164033.546000", "164033.546000", "164033.562000", "164033.562000", "164033.562000", "164033.562000", "164033.562000", "164033.562000", "164033.578000", "164033.578000", "164033.578000", "164033.578000", "164033.578000", "164033.578000", "164033.578000", "164033.578000", "164113.546000", "164113.546000", "164113.546000", "164113.546000", "164113.546000", "164113.546000", "164113.562000", "164113.562000", "164113.562000", "164113.562000", "164113.578000", "164113.578000", "164113.578000", "164113.578000", "164113.578000", "164113.593000", "164113.593000", "164113.593000", "164113.593000", "164113.593000", "164153.546000", "164153.546000", "164153.546000", "164153.546000", "164153.546000", "164153.546000", "164153.546000", "164153.562000", "164153.562000", "164153.562000", "164153.562000", "164153.562000", "164153.578000", "164153.578000", "164153.578000", "164153.578000", "164153.578000", "164153.578000", "164153.578000", "164153.578000", "164233.546000", "164233.546000", "164233.546000", "164233.546000", "164233.546000", "164233.562000", "164233.562000", "164233.562000", "164233.562000", "164233.562000", "164233.562000", "164233.562000", "164233.562000", "164233.578000", "164233.578000", "164233.578000", "164233.578000", "164233.578000", "164233.578000", "164233.578000", "164313.546000", "164313.546000", "164313.546000", "164313.546000", "164313.546000", "164313.546000", "164313.546000", "164313.546000", "164313.562000", "164313.562000", "164313.562000", "164313.562000", "164313.562000", "164313.562000", "164313.562000", "164313.562000", "164313.578000", "164313.578000", "164313.578000", "164313.578000", "164325.734000", "164325.734000", "164325.750000", "164325.750000", "164325.750000", "164325.750000", "164325.750000"],
      "InstanceNumber": [1, 2, 3, 4, 5, 6, 7, 8, 9, 10, 11, 12, 13, 14, 15, 16, 17, 18, 19, 20, 21, 22, 23, 24, 25, 26, 27, 28, 29, 30, 31, 32, 33, 34, 35, 36, 37, 38, 39, 40, 41, 42, 43, 44, 45, 46, 47, 48, 49, 50, 51, 52, 53, 54, 55, 56, 57, 58, 59, 60, 61, 62, 63, 64, 65, 66, 67, 68, 69, 70, 71, 72, 73, 74, 75, 76, 77, 78, 79, 80, 81, 82, 83, 84, 85, 86, 87, 88, 89, 90, 91, 92, 93, 94, 95, 96, 97, 98, 99, 100, 101, 102, 103, 104, 105, 106, 107, 108, 109, 110, 111, 112, 113, 114, 115, 116, 117, 118, 119, 120, 121, 122, 123, 124, 125, 126, 127, 128, 129, 130, 131, 132, 133, 134, 135, 136, 137, 138, 139, 140, 141, 142, 143, 144, 145, 146, 147, 148, 149, 150, 151, 152, 153, 154, 155, 156, 157, 158, 159, 160, 161, 162, 163, 164],
      "LargestImagePixelValue": [1875, 1809, 1781, 1775, 1770, 1762, 1769, 1773, 1762, 1770, 1769, 1779, 1763, 1767, 1771, 1762, 1778, 1759, 1754, 1755, 1764, 1752, 1737, 1775, 1781, 1778, 1779, 1772, 1778, 1752, 1772, 1752, 1768, 1769, 1748, 1776, 1773, 1760, 1774, 1761, 1779, 1762, 1775, 1764, 1751, 1760, 1760, 1762, 1758, 1754, 1754, 1761, 1755, 1759, 1774, 1746, 1762, 1773, 1768, 1749, 1751, 1778, 1774, 1773, 1755, 1761, 1769, 1758, 1750, 1754, 1758, 1757, 1758, 1751, 1753, 1756, 1758, 1746, 1748, 1743, 1751, 1746, 1750, 1734, 1746, 1744, 1734, 1733, 1744, 1741, 1733, 1738, 1735, 1731, 1742, 1741, 1737, 1729, 1737, 1747, 1738, 1732, 1726, 1724, 1733, 1737, 1737, 1735, 1741, 1737, 1730, 1740, 1732, 1735, 1742, 1738, 1735, 1736, 1730, 1734, 1745, 1742, 1733, 1740, 1742, 1745, 1739, 1744, 1740, 1757, 1727, 1732, 1728, 1748, 1749, 1747, 1730, 1729, 1740, 1742, 1740, 1731, 1732, 1726, 1719, 1725, 1738, 1740, 1732, 1737, 1745, 1740, 1736, 1734, 1740, 1739, 1732, 1735, 1741, 1734, 1752, 1746, 1734, 1731],
      "WindowCenter": [705.0, 703.0, 703.0, 703.0, 703.0, 702.0, 702.0, 702.0, 702.0, 702.0, 702.0, 702.0, 702.0, 703.0, 704.0, 703.0, 703.0, 703.0, 702.0, 703.0, 703.0, 703.0, 704.0, 704.0, 704.0, 704.0, 704.0, 704.0, 705.0, 704.0, 704.0, 704.0, 704.0, 704.0, 703.0, 704.0, 704.0, 704.0, 704.0, 702.0, 702.0, 703.0, 704.0, 704.0, 702.0, 702.0, 702.0, 702.0, 702.0, 702.0, 702.0, 703.0, 703.0, 703.0, 703.0, 703.0, 703.0, 703.0, 703.0, 703.0, 704.0, 704.0, 703.0, 703.0, 703.0, 703.0, 703.0, 703.0, 703.0, 703.0, 704.0, 703.0, 703.0, 703.0, 702.0, 703.0, 703.0, 702.0, 702.0, 702.0, 702.0, 702.0, 702.0, 701.0, 701.0, 701.0, 702.0, 702.0, 702.0, 702.0, 702.0, 701.0, 702.0, 702.0, 702.0, 702.0, 702.0, 702.0, 702.0, 702.0, 702.0, 702.0, 702.0, 702.0, 702.0, 702.0, 702.0, 702.0, 703.0, 702.0, 702.0, 702.0, 703.0, 702.0, 703.0, 702.0, 702.0, 702.0, 702.0, 702.0, 702.0, 702.0, 702.0, 702.0, 703.0, 702.0, 702.0, 702.0, 702.0, 702.0, 702.0, 702.0, 702.0, 703.0, 702.0, 702.0, 702.0, 702.0, 702.0, 702.0, 703.0, 703.0, 703.0, 702.0, 702.0, 702.0, 702.0, 702.0, 702.0, 702.0, 703.0, 703.0, 703.0, 703.0, 704.0, 704.0, 703.0, 703.0, 702.0, 702.0, 703.0, 703.0, 703.0, 703.0],
      "WindowWidth": [1527.0, 1519.0, 1520.0, 1521.0, 1519.0, 1517.0, 1517.0, 1518.0, 1517.0, 1517.0, 1518.0, 1518.0, 1518.0, 1521.0, 1522.0, 1521.0, 1521.0, 1518.0, 1517.0, 1519.0, 1519.0, 1520.0, 1522.0, 1524.0, 1523.0, 1522.0, 1523.0, 1524.0, 1524.0, 1523.0, 1524.0, 1522.0, 1521.0, 1522.0, 1521.0, 1522.0, 1523.0, 1522.0, 1523.0, 1518.0, 1519.0, 1519.0, 1522.0, 1522.0, 1518.0, 1517.0, 1517.0, 1518.0, 1516.0, 1517.0, 1518.0, 1520.0, 1520.0, 1520.0, 1520.0, 1520.0, 1520.0, 1521.0, 1521.0, 1521.0, 1523.0, 1523.0, 1520.0, 1519.0, 1519.0, 1519.0, 1521.0, 1521.0, 1519.0, 1520.0, 1521.0, 1521.0, 1520.0, 1520.0, 1518.0, 1519.0, 1519.0, 1517.0, 1517.0, 1517.0, 1517.0, 1517.0, 1518.0, 1515.0, 1515.0, 1516.0, 1518.0, 1517.0, 1516.0, 1518.0, 1516.0, 1516.0, 1518.0, 1518.0, 1518.0, 1518.0, 1517.0, 1516.0, 1517.0, 1517.0, 1518.0, 1518.0, 1516.0, 1517.0, 1518.0, 1518.0, 1517.0, 1517.0, 1519.0, 1517.0, 1516.0, 1518.0, 1518.0, 1517.0, 1519.0, 1517.0, 1516.0, 1516.0, 1517.0, 1517.0, 1516.0, 1517.0, 1518.0, 1518.0, 1519.0, 1518.0, 1518.0, 1516.0, 1516.0, 1519.0, 1517.0, 1517.0, 1518.0, 1519.0, 1517.0, 1518.0, 1517.0, 1517.0, 1516.0, 1518.0, 1519.0, 1519.0, 1519.0, 1517.0, 1517.0, 1517.0, 1517.0, 1518.0, 1518.0, 1518.0, 1518.0, 1519.0, 1520.0, 1520.0, 1523.0, 1522.0, 1520.0, 1518.0, 1518.0, 1517.0, 1519.0, 1519.0, 1520.0, 1520.0]
    },
    "slices": {}
  }
}