{
  "AcquisitionMatrixPE": 64,
  "AcquisitionNumber": 1,
  "AcquisitionTime": "09:27:30.812500",
  "BandwidthPerPixelPhaseEncode": 33.967,
  "BaseResolution": 64,
  "CoilCombinationMethod": "Sum of Squares",
  "CoilString": "C:HEA;HEP",
  "ConversionSoftware": "dcm2niix",
  "ConversionSoftwareVersion": "v1.0.20220720",
  "DerivedVendorReportedEchoSpacing": 0.000460005,
  "DeviceSerialNumber": "35193",
  "DwellTime": 3.1e-06,
  "EchoTime": 0.03,
  "EffectiveEchoSpacing": 0.000460005,
  "FlipAngle": 90,
  "HeudiconvVersion": "1.1.6",
  "ImageOrientationPatientDICOM": [1, 0, 0, 0, 1, 0],
  "ImageOrientationText": "Tra",
  "ImageType": [
    "ORIGINAL",
    "PRIMARY",
    "M",
    "ND",
    "MOSAIC"
],
  "ImagingFrequency": 123.254,
  "InPlanePhaseEncodingDirectionDICOM": "COL",
  "InstitutionAddress": "Xinjiekouwai Street No 19,Beijing,Haidian District,CN,100875",
  "InstitutionName": "Beijing Normal Universtiy/2773C4/",
  "InstitutionalDepartmentName": "Department",
  "MRAcquisitionType": "2D",
  "MagneticFieldStrength": 3,
  "Manufacturer": "Siemens",
  "ManufacturersModelName": "TrioTim",
  "MatrixCoilMode": "SENSE",
  "Modality": "MR",
  "NonlinearGradientCorrection": false,
  "PartialFourier": 1,
  "PatientPosition": "HFS",
  "PercentPhaseFOV": 100,
  "PercentSampling": 100,
  "PhaseEncodingDirection": "j-",
  "PhaseEncodingSteps": 64,
  "PhaseResolution": 1,
  "PixelBandwidth": 2520,
  "ProcedureStepDescription": "BNU_cst_2015^Guo.TaoMei",
  "ProtocolName": "ge_func_3x3x4_164",
  "PulseSequenceDetails": "%SiemensSeq%\\ep2d_bold",
  "ReceiveCoilName": "HeadMatrix",
  "ReconMatrixPE": 64,
  "RepetitionTime": 2,
  "SAR": 0.139384,
  "ScanOptions": "FS",
  "ScanningSequence": "EP",
  "SequenceName": "*epfid2d1_64",
  "SequenceVariant": "SK",
  "SeriesDescription": "ge_func_3x3x4_164",
  "SeriesNumber": 6,
  "ShimSetting": [-4517, -19406, -9796, 1336, -127, -601, 42, 74],
  "SliceThickness": 4,
  "SliceTiming": [0, 1.0325, 0.06, 1.095, 0.12, 1.155, 0.1825, 1.215, 0.2425, 1.2775, 0.3025, 1.3375, 0.365, 1.3975, 0.425, 1.46, 0.485, 1.52, 0.5475, 1.58, 0.6075, 1.6425, 0.6675, 1.7025, 0.73, 1.7625, 0.79, 1.825, 0.85, 1.885, 0.9125, 1.945, 0.9725],
  "SoftwareVersions": "syngo MR B17",
  "SpacingBetweenSlices": 4.6,
  "StationName": "MRC35193",
  "TaskName": "CognitiveControl",
  "TotalReadoutTime": 0.0289803,
  "TxRefAmp": 333.538,
  "dcmmeta_affine": [
    [-3.125, 0.0, 0.0, 102.69879150390625],
    [0.0, 3.125, 0.0, -88.77861785888672],
    [0.0, 0.0, 4.599999904632568, -69.55180358886719],
    [0.0, 0.0, 0.0, 1.0]
],
  "dcmmeta_reorient_transform": [
    [0.0, -1.0, 0.0, 63.0],
    [1.0, 0.0, 0.0, 0.0],
    [0.0, 0.0, 1.0, 0.0],
    [0.0, 0.0, 0.0, 1.0]
],
  "dcmmeta_shape": [64, 64, 33, 164],
  "dcmmeta_slice_dim": 2,
  "dcmmeta_version": 0.6,
  "global": {
    "const": {
      "AcquisitionMatrix": [64, 0, 0, 64],
      "AngioFlag": "N",
      "BitsAllocated": 16,
      "BitsStored": 12,
      "Columns": 384,
      "EchoNumbers": 1,
      "EchoTime": 30.0,
      "EchoTrainLength": 1,
      "FlipAngle": 90.0,
      "HighBit": 11,
      "ImageOrientationPatient": [1.0, 0.0, 0.0, 0.0, 1.0, 0.0],
      "ImagePositionPatient": [-602.69879508018, -608.09638595581, -69.551803588867],
      "ImageType": [
        "ORIGINAL",
        "PRIMARY",
        "M",
        "ND",
        "MOSAIC"
],
      "ImagedNucleus": "1H",
      "ImagingFrequency": 123.253589,
      "InPlanePhaseEncodingDirection": "COL",
      "MRAcquisitionType": "2D",
      "MagneticFieldStrength": 3.0,
      "Manufacturer": "SIEMENS",
      "ManufacturerModelName": "TrioTim",
      "Modality": "MR",
      "NumberOfAverages": 1.0,
      "NumberOfPhaseEncodingSteps": 64,
      "PercentPhaseFieldOfView": 100.0,
      "PercentSampling": 100.0,
      "PerformedProcedureStepStartTime": "090155.453000",
      "PhotometricInterpretation": "MONOCHROME2",
      "PixelBandwidth": 2520.0,
      "PixelRepresentation": 0,
      "PixelSpacing": [3.125, 3.125],
      "ProtocolName": "ge_func_3x3x4_164",
      "RepetitionTime": 2000.0,
      "Rows": 384,
      "SAR": 0.13938420325813,
      "SamplesPerPixel": 1,
      "ScanOptions": "FS",
      "ScanningSequence": "EP",
      "SequenceName": "*epfid2d1_64",
      "SequenceVariant": "SK",
      "SeriesDescription": "ge_func_3x3x4_164",
      "SeriesNumber": 6,
      "SeriesTime": "092817.015000",
      "SliceLocation": -69.551803588867,
      "SliceThickness": 4.0,
      "SmallestImagePixelValue": 0,
      "SoftwareVersions": "syngo MR B17",
      "SpacingBetweenSlices": 4.5999999046326,
      "SpecificCharacterSet": "ISO_IR 100",
      "StudyID": "1",
      "StudyTime": "090155.343000",
      "TransmitCoilName": "Body",
      "VariableFlipAngleFlag": "N",
      "WindowCenterWidthExplanation": "Algo1",
      "dBdt": 0.0},
    "slices": {}
  },
  "time": {
    "samples": {
      "AcquisitionNumber": [1, 2, 3, 4, 5, 6, 7, 8, 9, 10, 11, 12, 13, 14, 15, 16, 17, 18, 19, 20, 21, 22, 23, 24, 25, 26, 27, 28, 29, 30, 31, 32, 33, 34, 35, 36, 37, 38, 39, 40, 41, 42, 43, 44, 45, 46, 47, 48, 49, 50, 51, 52, 53, 54, 55, 56, 57, 58, 59, 60, 61, 62, 63, 64, 65, 66, 67, 68, 69, 70, 71, 72, 73, 74, 75, 76, 77, 78, 79, 80, 81, 82, 83, 84, 85, 86, 87, 88, 89, 90, 91, 92, 93, 94, 95, 96, 97, 98, 99, 100, 101, 102, 103, 104, 105, 106, 107, 108, 109, 110, 111, 112, 113, 114, 115, 116, 117, 118, 119, 120, 121, 122, 123, 124, 125, 126, 127, 128, 129, 130, 131, 132, 133, 134, 135, 136, 137, 138, 139, 140, 141, 142, 143, 144, 145, 146, 147, 148, 149, 150, 151, 152, 153, 154, 155, 156, 157, 158, 159, 160, 161, 162, 163, 164],
      "AcquisitionTime": ["092730.812500", "092732.820000", "092734.827500", "092736.835000", "092738.845000", "092740.852500", "092742.860000", "092744.867500", "092746.875000", "092748.885000", "092750.892500", "092752.900000", "092754.907500", "092756.915000", "092758.925000", "092800.932500", "092802.940000", "092804.947500", "092806.957500", "092808.965000", "092810.972500", "092812.980000", "092814.987500", "092816.997500", "092819.005000", "092821.012500", "092823.020000", "092825.027500", "092827.037500", "092829.045000", "092831.052500", "092833.060000", "092835.070000", "092837.077500", "092839.085000", "092841.092500", "092843.100000", "092845.110000", "092847.117500", "092849.125000", "092851.132500", "092853.140000", "092855.150000", "092857.157500", "092859.165000", "092901.172500", "092903.182500", "092905.190000", "092907.197500", "092909.205000", "092911.212500", "092913.222500", "092915.230000", "092917.237500", "092919.245000", "092921.252500", "092923.262500", "092925.270000", "092927.277500", "092929.285000", "092931.292500", "092933.302500", "092935.310000", "092937.317500", "092939.325000", "092941.335000", "092943.342500", "092945.350000", "092947.357500", "092949.365000", "092951.375000", "092953.382500", "092955.390000", "092957.397500", "092959.405000", "093001.415000", "093003.422500", "093005.430000", "093007.437500", "093009.447500", "093011.455000", "093013.462500", "093015.470000", "093017.477500", "093019.487500", "093021.495000", "093023.502500", "093025.510000", "093027.517500", "093029.527500", "093031.535000", "093033.542500", "093035.550000", "093037.560000", "093039.567500", "093041.575000", "093043.582500", "093045.590000", "093047.600000", "093049.607500", "093051.615000", "093053.622500", "093055.630000", "093057.640000", "093059.647500", "093101.655000", "093103.662500", "093105.670000", "093107.680000", "093109.687500", "093111.695000", "093113.702500", "093115.712500", "093117.720000", "093119.727500", "093121.735000", "093123.742500", "093125.752500", "093127.760000", "093129.767500", "093131.775000", "093133.782500", "093135.792500", "093137.800000", "093139.807500", "093141.815000", "093143.825000", "093145.832500", "093147.840000", "093149.847500", "093151.855000", "093153.865000", "093155.872500", "093157.880000", "093159.887500", "093201.895000", "093203.905000", "093205.912500", "093207.920000", "093209.927500", "093211.937500", "093213.945000", "093215.952500", "093217.960000", "093219.967500", "093221.977500", "093223.985000", "093225.992500", "093228.000000", "093230.007500", "093232.017500", "093234.025000", "093236.032500", "093238.040000", "093240.047500", "093242.057500", "093244.065000", "093246.072500", "093248.080000", "093250.090000", "093252.097500", "093254.105000", "093256.112500", "093258.120000"],
      "ContentTime": ["092817.015000", "092817.015000", "092817.015000", "092817.015000", "092817.015000", "092817.031000", "092817.031000", "092817.046000", "092817.046000", "092817.046000", "092817.046000", "092817.046000", "092817.062000", "092817.062000", "092817.062000", "092817.062000", "092817.062000", "092817.062000", "092817.062000", "092817.078000", "092817.078000", "092817.078000", "092857.000000", "092857.000000", "092857.015000", "092857.015000", "092857.015000", "092857.031000", "092857.031000", "092857.031000", "092857.031000", "092857.031000", "092857.031000", "092857.031000", "092857.031000", "092857.046000", "092857.046000", "092857.046000", "092857.046000", "092857.046000", "092857.046000", "092857.062000", "092937.000000", "092937.000000", "092937.015000", "092937.015000", "092937.015000", "092937.015000", "092937.015000", "092937.015000", "092937.015000", "092937.015000", "092937.031000", "092937.031000", "092937.031000", "092937.031000", "092937.031000", "092937.031000", "092937.031000", "092937.046000", "092937.046000", "092937.046000", "093017.000000", "093017.015000", "093017.015000", "093017.015000", "093017.015000", "093017.015000", "093017.031000", "093017.031000", "093017.031000", "093017.031000", "093017.046000", "093017.046000", "093017.046000", "093017.046000", "093017.062000", "093017.062000", "093017.062000", "093017.078000", "093017.078000", "093017.078000", "093057.000000", "093057.015000", "093057.015000", "093057.015000", "093057.015000", "093057.015000", "093057.031000", "093057.031000", "093057.031000", "093057.031000", "093057.046000", "093057.046000", "093057.046000", "093057.046000", "093057.046000", "093057.046000", "093057.046000", "093057.046000", "093057.062000", "093057.062000", "093137.000000", "093137.015000", "093137.015000", "093137.015000", "093137.015000", "093137.031000", "093137.031000", "093137.031000", "093137.031000", "093137.031000", "093137.031000", "093137.031000", "093137.031000", "093137.046000", "093137.046000", "093137.046000", "093137.046000", "093137.046000", "093137.046000", "093137.046000", "093217.000000", "093217.000000", "093217.000000", "093217.015000", "093217.015000", "093217.015000", "093217.031000", "093217.031000", "093217.031000", "093217.031000", "093217.031000", "093217.031000", "093217.031000", "093217.031000", "093217.046000", "093217.046000", "093217.046000", "093217.046000", "093217.046000", "093217.046000", "093257.000000", "093257.015000", "093257.015000", "093257.015000", "093257.015000", "093257.015000", "093257.015000", "093257.015000", "093257.015000", "093257.031000", "093257.031000", "093257.031000", "093257.031000", "093257.031000", "093257.031000", "093257.031000", "093257.031000", "093257.046000", "093257.046000", "093257.046000", "093259.562000", "093259.562000"],
      "InstanceCreationTime": ["092817.015000", "092817.015000", "092817.015000", "092817.015000", "092817.015000", "092817.031000", "092817.031000", "092817.046000", "092817.046000", "092817.046000", "092817.046000", "092817.046000", "092817.062000", "092817.062000", "092817.062000", "092817.062000", "092817.062000", "092817.062000", "092817.062000", "092817.078000", "092817.078000", "092817.078000", "092857.000000", "092857.000000", "092857.015000", "092857.015000", "092857.015000", "092857.031000", "092857.031000", "092857.031000", "092857.031000", "092857.031000", "092857.031000", "092857.031000", "092857.031000", "092857.046000", "092857.046000", "092857.046000", "092857.046000", "092857.046000", "092857.046000", "092857.062000", "092937.000000", "092937.000000", "092937.015000", "092937.015000", "092937.015000", "092937.015000", "092937.015000", "092937.015000", "092937.015000", "092937.015000", "092937.031000", "092937.031000", "092937.031000", "092937.031000", "092937.031000", "092937.031000", "092937.031000", "092937.046000", "092937.046000", "092937.046000", "093017.000000", "093017.015000", "093017.015000", "093017.015000", "093017.015000", "093017.015000", "093017.031000", "093017.031000", "093017.031000", "093017.031000", "093017.046000", "093017.046000", "093017.046000", "093017.046000", "093017.062000", "093017.062000", "093017.062000", "093017.078000", "093017.078000", "093017.078000", "093057.000000", "093057.015000", "093057.015000", "093057.015000", "093057.015000", "093057.015000", "093057.031000", "093057.031000", "093057.031000", "093057.031000", "093057.046000", "093057.046000", "093057.046000", "093057.046000", "093057.046000", "093057.046000", "093057.046000", "093057.046000", "093057.062000", "093057.062000", "093137.000000", "093137.015000", "093137.015000", "093137.015000", "093137.015000", "093137.031000", "093137.031000", "093137.031000", "093137.031000", "093137.031000", "093137.031000", "093137.031000", "093137.031000", "093137.046000", "093137.046000", "093137.046000", "093137.046000", "093137.046000", "093137.046000", "093137.046000", "093217.000000", "093217.000000", "093217.000000", "093217.015000", "093217.015000", "093217.015000", "093217.031000", "093217.031000", "093217.031000", "093217.031000", "093217.031000", "093217.031000", "093217.031000", "093217.031000", "093217.046000", "093217.046000", "093217.046000", "093217.046000", "093217.046000", "093217.046000", "093257.000000", "093257.015000", "093257.015000", "093257.015000", "093257.015000", "093257.015000", "093257.015000", "093257.015000", "093257.015000", "093257.031000", "093257.031000", "093257.031000", "093257.031000", "093257.031000", "093257.031000", "093257.031000", "093257.031000", "093257.046000", "093257.046000", "093257.046000", "093259.562000", "093259.562000"],
      "InstanceNumber": [1, 2, 3, 4, 5, 6, 7, 8, 9, 10, 11, 12, 13, 14, 15, 16, 17, 18, 19, 20, 21, 22, 23, 24, 25, 26, 27, 28, 29, 30, 31, 32, 33, 34, 35, 36, 37, 38, 39, 40, 41, 42, 43, 44, 45, 46, 47, 48, 49, 50, 51, 52, 53, 54, 55, 56, 57, 58, 59, 60, 61, 62, 63, 64, 65, 66, 67, 68, 69, 70, 71, 72, 73, 74, 75, 76, 77, 78, 79, 80, 81, 82, 83, 84, 85, 86, 87, 88, 89, 90, 91, 92, 93, 94, 95, 96, 97, 98, 99, 100, 101, 102, 103, 104, 105, 106, 107, 108, 109, 110, 111, 112, 113, 114, 115, 116, 117, 118, 119, 120, 121, 122, 123, 124, 125, 126, 127, 128, 129, 130, 131, 132, 133, 134, 135, 136, 137, 138, 139, 140, 141, 142, 143, 144, 145, 146, 147, 148, 149, 150, 151, 152, 153, 154, 155, 156, 157, 158, 159, 160, 161, 162, 163, 164],
      "LargestImagePixelValue": [1966, 1875, 1856, 1856, 1840, 1824, 1840, 1817, 1832, 1826, 1844, 1821, 1863, 1836, 1827, 1822, 1831, 1834, 1842, 1842, 1833, 1817, 1819, 1825, 1836, 1821, 1826, 1839, 1814, 1832, 1823, 1834, 1826, 1827, 1823, 1829, 1853, 1847, 1854, 1858, 1839, 1855, 1826, 1831, 1842, 1805, 1810, 1836, 1833, 1844, 1836, 1827, 1837, 1831, 1853, 1845, 1856, 1841, 1809, 1819, 1844, 1815, 1806, 1804, 1837, 1831, 1828, 1853, 1840, 1831, 1855, 1846, 1823, 1831, 1831, 1812, 1894, 1837, 1825, 1832, 1842, 1836, 1853, 1865, 1854, 1854, 1865, 1892, 1890, 1862, 1862, 1846, 1874, 1860, 1873, 1851, 1881, 1843, 1898, 1858, 1862, 1855, 1863, 1889, 1873, 1849, 1828, 1854, 1864, 1855, 1874, 1883, 1865, 1856, 1860, 1841, 1866, 1869, 1866, 1894, 1875, 1866, 1850, 1852, 1870, 1861, 1867, 1847, 1889, 1883, 1861, 1873, 1895, 1894, 1892, 1866, 1852, 1911, 1871, 1908, 1880, 1895, 1897, 1866, 1864, 1869, 1900, 1884, 1873, 1873, 1882, 1895, 1888, 1910, 1862, 1897, 1897, 1876, 1920, 1919, 1918, 1886, 1889, 1892],
      "WindowCenter": [744.0, 742.0, 742.0, 740.0, 738.0, 737.0, 737.0, 737.0, 738.0, 738.0, 739.0, 739.0, 740.0, 740.0, 740.0, 740.0, 741.0, 741.0, 741.0, 740.0, 740.0, 739.0, 739.0, 740.0, 740.0, 740.0, 740.0, 740.0, 741.0, 741.0, 741.0, 741.0, 741.0, 741.0, 741.0, 741.0, 743.0, 742.0, 741.0, 741.0, 740.0, 740.0, 740.0, 740.0, 741.0, 740.0, 740.0, 740.0, 741.0, 741.0, 741.0, 742.0, 742.0, 741.0, 742.0, 742.0, 742.0, 741.0, 741.0, 741.0, 741.0, 741.0, 741.0, 741.0, 742.0, 741.0, 741.0, 741.0, 741.0, 742.0, 742.0, 741.0, 741.0, 741.0, 741.0, 741.0, 742.0, 741.0, 741.0, 741.0, 741.0, 741.0, 742.0, 742.0, 742.0, 743.0, 744.0, 745.0, 744.0, 743.0, 742.0, 741.0, 742.0, 742.0, 742.0, 742.0, 742.0, 742.0, 742.0, 742.0, 742.0, 742.0, 743.0, 743.0, 743.0, 742.0, 743.0, 743.0, 743.0, 743.0, 743.0, 743.0, 742.0, 742.0, 742.0, 741.0, 741.0, 743.0, 744.0, 745.0, 743.0, 742.0, 742.0, 742.0, 742.0, 742.0, 743.0, 743.0, 743.0, 743.0, 742.0, 742.0, 743.0, 744.0, 744.0, 743.0, 743.0, 743.0, 744.0, 745.0, 744.0, 743.0, 743.0, 743.0, 743.0, 743.0, 744.0, 744.0, 744.0, 743.0, 743.0, 744.0, 743.0, 743.0, 742.0, 743.0, 744.0, 745.0, 746.0, 744.0, 744.0, 743.0, 743.0, 743.0],
      "WindowWidth": [1604.0, 1597.0, 1596.0, 1593.0, 1586.0, 1583.0, 1583.0, 1583.0, 1586.0, 1586.0, 1589.0, 1590.0, 1592.0, 1592.0, 1591.0, 1593.0, 1594.0, 1594.0, 1593.0, 1592.0, 1591.0, 1590.0, 1590.0, 1591.0, 1592.0, 1591.0, 1591.0, 1592.0, 1594.0, 1595.0, 1594.0, 1594.0, 1594.0, 1593.0, 1594.0, 1595.0, 1599.0, 1597.0, 1595.0, 1593.0, 1592.0, 1593.0, 1592.0, 1592.0, 1593.0, 1591.0, 1593.0, 1593.0, 1593.0, 1594.0, 1596.0, 1596.0, 1596.0, 1595.0, 1598.0, 1597.0, 1596.0, 1595.0, 1594.0, 1593.0, 1595.0, 1594.0, 1595.0, 1596.0, 1597.0, 1595.0, 1595.0, 1595.0, 1594.0, 1596.0, 1597.0, 1595.0, 1594.0, 1594.0, 1593.0, 1595.0, 1596.0, 1596.0, 1595.0, 1595.0, 1595.0, 1595.0, 1597.0, 1596.0, 1597.0, 1599.0, 1602.0, 1604.0, 1603.0, 1598.0, 1596.0, 1594.0, 1597.0, 1597.0, 1598.0, 1597.0, 1597.0, 1597.0, 1598.0, 1598.0, 1597.0, 1598.0, 1599.0, 1600.0, 1599.0, 1598.0, 1599.0, 1599.0, 1599.0, 1599.0, 1600.0, 1599.0, 1597.0, 1596.0, 1597.0, 1596.0, 1595.0, 1599.0, 1603.0, 1604.0, 1601.0, 1597.0, 1595.0, 1596.0, 1597.0, 1598.0, 1599.0, 1599.0, 1599.0, 1598.0, 1598.0, 1597.0, 1599.0, 1601.0, 1602.0, 1599.0, 1600.0, 1600.0, 1601.0, 1604.0, 1602.0, 1600.0, 1600.0, 1599.0, 1599.0, 1600.0, 1602.0, 1602.0, 1601.0, 1599.0, 1601.0, 1602.0, 1600.0, 1598.0, 1598.0, 1599.0, 1601.0, 1605.0, 1606.0, 1603.0, 1601.0, 1599.0, 1599.0, 1600.0]
    },
    "slices": {}
  }
}