{
  "AcquisitionMatrixPE": 64,
  "AcquisitionNumber": 1,
  "AcquisitionTime": "09:08:25.772500",
  "BandwidthPerPixelPhaseEncode": 33.967,
  "BaseResolution": 64,
  "CoilCombinationMethod": "Sum of Squares",
  "CoilString": "C:HEA;HEP",
  "ConversionSoftware": "dcm2niix",
  "ConversionSoftwareVersion": "v1.0.20220720",
  "DerivedVendorReportedEchoSpacing": 0.000460005,
  "DeviceSerialNumber": "35193",
  "DwellTime": 3.1e-06,
  "EchoTime": 0.03,
  "EffectiveEchoSpacing": 0.000460005,
  "FlipAngle": 90,
  "HeudiconvVersion": "1.1.6",
  "ImageOrientationPatientDICOM": [1, 0, 0, 0, 1, 0],
  "ImageOrientationText": "Tra",
  "ImageType": [
    "ORIGINAL",
    "PRIMARY",
    "M",
    "ND",
    "MOSAIC"
],
  "ImagingFrequency": 123.254,
  "InPlanePhaseEncodingDirectionDICOM": "COL",
  "InstitutionAddress": "Xinjiekouwai Street No 19,Beijing,Haidian District,CN,100875",
  "InstitutionName": "Beijing Normal Universtiy/2773C4/",
  "InstitutionalDepartmentName": "Department",
  "MRAcquisitionType": "2D",
  "MagneticFieldStrength": 3,
  "Manufacturer": "Siemens",
  "ManufacturersModelName": "TrioTim",
  "MatrixCoilMode": "SENSE",
  "Modality": "MR",
  "NonlinearGradientCorrection": false,
  "PartialFourier": 1,
  "PatientPosition": "HFS",
  "PercentPhaseFOV": 100,
  "PercentSampling": 100,
  "PhaseEncodingDirection": "j-",
  "PhaseEncodingSteps": 64,
  "PhaseResolution": 1,
  "PixelBandwidth": 2520,
  "ProcedureStepDescription": "BNU_cst_2015^Guo.TaoMei",
  "ProtocolName": "ge_func_3x3x4_164",
  "PulseSequenceDetails": "%SiemensSeq%\\ep2d_bold",
  "ReceiveCoilName": "HeadMatrix",
  "ReconMatrixPE": 64,
  "RepetitionTime": 2,
  "SAR": 0.139384,
  "ScanOptions": "FS",
  "ScanningSequence": "EP",
  "SequenceName": "*epfid2d1_64",
  "SequenceVariant": "SK",
  "SeriesDescription": "ge_func_3x3x4_164",
  "SeriesNumber": 3,
  "ShimSetting": [-4517, -19406, -9796, 1336, -127, -601, 42, 74],
  "SliceThickness": 4,
  "SliceTiming": [0, 1.0325, 0.06, 1.095, 0.12, 1.155, 0.1825, 1.215, 0.2425, 1.2775, 0.3025, 1.3375, 0.365, 1.3975, 0.425, 1.46, 0.485, 1.52, 0.5475, 1.58, 0.6075, 1.6425, 0.6675, 1.7025, 0.73, 1.7625, 0.79, 1.825, 0.85, 1.885, 0.9125, 1.945, 0.9725],
  "SoftwareVersions": "syngo MR B17",
  "SpacingBetweenSlices": 4.6,
  "StationName": "MRC35193",
  "TaskName": "LanguageControl",
  "TotalReadoutTime": 0.0289803,
  "TxRefAmp": 333.538,
  "dcmmeta_affine": [
    [-3.125, 0.0, 0.0, 102.69879150390625],
    [0.0, 3.125, 0.0, -88.77861785888672],
    [0.0, 0.0, 4.599999904632568, -69.55180358886719],
    [0.0, 0.0, 0.0, 1.0]
],
  "dcmmeta_reorient_transform": [
    [0.0, -1.0, 0.0, 63.0],
    [1.0, 0.0, 0.0, 0.0],
    [0.0, 0.0, 1.0, 0.0],
    [0.0, 0.0, 0.0, 1.0]
],
  "dcmmeta_shape": [64, 64, 33, 164],
  "dcmmeta_slice_dim": 2,
  "dcmmeta_version": 0.6,
  "global": {
    "const": {
      "AcquisitionMatrix": [64, 0, 0, 64],
      "AngioFlag": "N",
      "BitsAllocated": 16,
      "BitsStored": 12,
      "Columns": 384,
      "EchoNumbers": 1,
      "EchoTime": 30.0,
      "EchoTrainLength": 1,
      "FlipAngle": 90.0,
      "HighBit": 11,
      "ImageOrientationPatient": [1.0, 0.0, 0.0, 0.0, 1.0, 0.0],
      "ImagePositionPatient": [-602.69879508018, -608.09638595581, -69.551803588867],
      "ImageType": [
        "ORIGINAL",
        "PRIMARY",
        "M",
        "ND",
        "MOSAIC"
],
      "ImagedNucleus": "1H",
      "ImagingFrequency": 123.25357,
      "InPlanePhaseEncodingDirection": "COL",
      "MRAcquisitionType": "2D",
      "MagneticFieldStrength": 3.0,
      "Manufacturer": "SIEMENS",
      "ManufacturerModelName": "TrioTim",
      "Modality": "MR",
      "NumberOfAverages": 1.0,
      "NumberOfPhaseEncodingSteps": 64,
      "PercentPhaseFieldOfView": 100.0,
      "PercentSampling": 100.0,
      "PerformedProcedureStepStartTime": "090155.453000",
      "PhotometricInterpretation": "MONOCHROME2",
      "PixelBandwidth": 2520.0,
      "PixelRepresentation": 0,
      "PixelSpacing": [3.125, 3.125],
      "ProtocolName": "ge_func_3x3x4_164",
      "RepetitionTime": 2000.0,
      "Rows": 384,
      "SAR": 0.13938420325813,
      "SamplesPerPixel": 1,
      "ScanOptions": "FS",
      "ScanningSequence": "EP",
      "SequenceName": "*epfid2d1_64",
      "SequenceVariant": "SK",
      "SeriesDescription": "ge_func_3x3x4_164",
      "SeriesNumber": 3,
      "SeriesTime": "090917.015000",
      "SliceLocation": -69.551803588867,
      "SliceThickness": 4.0,
      "SmallestImagePixelValue": 0,
      "SoftwareVersions": "syngo MR B17",
      "SpacingBetweenSlices": 4.5999999046326,
      "SpecificCharacterSet": "ISO_IR 100",
      "StudyID": "1",
      "StudyTime": "090155.343000",
      "TransmitCoilName": "Body",
      "VariableFlipAngleFlag": "N",
      "WindowCenterWidthExplanation": "Algo1",
      "dBdt": 0.0},
    "slices": {}
  },
  "time": {
    "samples": {
      "AcquisitionNumber": [1, 2, 3, 4, 5, 6, 7, 8, 9, 10, 11, 12, 13, 14, 15, 16, 17, 18, 19, 20, 21, 22, 23, 24, 25, 26, 27, 28, 29, 30, 31, 32, 33, 34, 35, 36, 37, 38, 39, 40, 41, 42, 43, 44, 45, 46, 47, 48, 49, 50, 51, 52, 53, 54, 55, 56, 57, 58, 59, 60, 61, 62, 63, 64, 65, 66, 67, 68, 69, 70, 71, 72, 73, 74, 75, 76, 77, 78, 79, 80, 81, 82, 83, 84, 85, 86, 87, 88, 89, 90, 91, 92, 93, 94, 95, 96, 97, 98, 99, 100, 101, 102, 103, 104, 105, 106, 107, 108, 109, 110, 111, 112, 113, 114, 115, 116, 117, 118, 119, 120, 121, 122, 123, 124, 125, 126, 127, 128, 129, 130, 131, 132, 133, 134, 135, 136, 137, 138, 139, 140, 141, 142, 143, 144, 145, 146, 147, 148, 149, 150, 151, 152, 153, 154, 155, 156, 157, 158, 159, 160, 161, 162, 163, 164],
      "AcquisitionTime": ["090825.772500", "090827.780000", "090829.787500", "090831.795000", "090833.802500", "090835.812500", "090837.820000", "090839.827500", "090841.835000", "090843.842500", "090845.852500", "090847.860000", "090849.867500", "090851.875000", "090853.885000", "090855.892500", "090857.900000", "090859.907500", "090901.915000", "090903.925000", "090905.932500", "090907.940000", "090909.947500", "090911.955000", "090913.965000", "090915.972500", "090917.980000", "090919.987500", "090921.997500", "090924.005000", "090926.012500", "090928.020000", "090930.027500", "090932.037500", "090934.045000", "090936.052500", "090938.060000", "090940.067500", "090942.077500", "090944.085000", "090946.092500", "090948.100000", "090950.107500", "090952.117500", "090954.125000", "090956.132500", "090958.140000", "091000.150000", "091002.157500", "091004.165000", "091006.172500", "091008.180000", "091010.190000", "091012.197500", "091014.205000", "091016.212500", "091018.220000", "091020.230000", "091022.237500", "091024.245000", "091026.252500", "091028.262500", "091030.270000", "091032.277500", "091034.285000", "091036.292500", "091038.302500", "091040.310000", "091042.317500", "091044.325000", "091046.332500", "091048.342500", "091050.350000", "091052.357500", "091054.365000", "091056.375000", "091058.382500", "091100.390000", "091102.397500", "091104.405000", "091106.415000", "091108.422500", "091110.430000", "091112.437500", "091114.445000", "091116.455000", "091118.462500", "091120.470000", "091122.477500", "091124.487500", "091126.495000", "091128.502500", "091130.510000", "091132.517500", "091134.527500", "091136.535000", "091138.542500", "091140.550000", "091142.557500", "091144.567500", "091146.575000", "091148.582500", "091150.590000", "091152.597500", "091154.607500", "091156.615000", "091158.622500", "091200.630000", "091202.640000", "091204.647500", "091206.655000", "091208.662500", "091210.670000", "091212.680000", "091214.687500", "091216.695000", "091218.702500", "091220.710000", "091222.720000", "091224.727500", "091226.735000", "091228.742500", "091230.752500", "091232.760000", "091234.767500", "091236.775000", "091238.782500", "091240.792500", "091242.800000", "091244.807500", "091246.815000", "091248.822500", "091250.832500", "091252.840000", "091254.847500", "091256.855000", "091258.865000", "091300.872500", "091302.880000", "091304.887500", "091306.895000", "091308.905000", "091310.912500", "091312.920000", "091314.927500", "091316.935000", "091318.945000", "091320.952500", "091322.960000", "091324.967500", "091326.975000", "091328.985000", "091330.992500", "091333.000000", "091335.007500", "091337.017500", "091339.025000", "091341.032500", "091343.040000", "091345.047500", "091347.057500", "091349.065000", "091351.072500", "091353.080000"],
      "ContentTime": ["090917.015000", "090917.015000", "090917.015000", "090917.015000", "090917.015000", "090917.015000", "090917.031000", "090917.031000", "090917.031000", "090917.031000", "090917.031000", "090917.031000", "090917.046000", "090917.046000", "090917.046000", "090917.046000", "090917.046000", "090917.046000", "090917.062000", "090917.062000", "090917.062000", "090917.062000", "090917.062000", "090917.062000", "090917.062000", "090957.000000", "090957.000000", "090957.015000", "090957.015000", "090957.015000", "090957.015000", "090957.015000", "090957.015000", "090957.031000", "090957.031000", "090957.031000", "090957.031000", "090957.031000", "090957.031000", "090957.031000", "090957.046000", "090957.046000", "090957.046000", "090957.046000", "090957.046000", "091037.000000", "091037.015000", "091037.015000", "091037.015000", "091037.015000", "091037.015000", "091037.015000", "091037.015000", "091037.015000", "091037.031000", "091037.031000", "091037.031000", "091037.031000", "091037.046000", "091037.046000", "091037.046000", "091037.046000", "091037.046000", "091037.046000", "091037.046000", "091117.000000", "091117.015000", "091117.015000", "091117.015000", "091117.031000", "091117.031000", "091117.031000", "091117.031000", "091117.046000", "091117.046000", "091117.046000", "091117.046000", "091117.046000", "091117.046000", "091117.046000", "091117.046000", "091117.062000", "091117.062000", "091117.062000", "091117.062000", "091157.000000", "091157.000000", "091157.015000", "091157.015000", "091157.015000", "091157.015000", "091157.015000", "091157.015000", "091157.031000", "091157.031000", "091157.031000", "091157.031000", "091157.031000", "091157.046000", "091157.046000", "091157.046000", "091157.046000", "091157.046000", "091157.062000", "091157.062000", "091237.000000", "091237.015000", "091237.015000", "091237.015000", "091237.015000", "091237.015000", "091237.015000", "091237.031000", "091237.046000", "091237.046000", "091237.046000", "091237.046000", "091237.046000", "091237.046000", "091237.046000", "091237.046000", "091237.046000", "091237.062000", "091237.062000", "091237.062000", "091257.000000", "091257.000000", "091257.015000", "091257.015000", "091257.015000", "091257.015000", "091257.015000", "091257.015000", "091257.015000", "091257.015000", "091337.000000", "091337.015000", "091337.015000", "091337.015000", "091337.015000", "091337.031000", "091337.031000", "091337.031000", "091337.031000", "091337.031000", "091337.031000", "091337.031000", "091337.046000", "091337.046000", "091337.062000", "091337.062000", "091337.062000", "091337.062000", "091337.062000", "091337.062000", "091354.109000", "091354.109000", "091354.109000", "091354.109000", "091354.125000", "091354.125000", "091354.125000", "091354.125000", "091354.125000"],
      "InstanceCreationTime": ["090917.015000", "090917.015000", "090917.015000", "090917.015000", "090917.015000", "090917.015000", "090917.031000", "090917.031000", "090917.031000", "090917.031000", "090917.031000", "090917.031000", "090917.046000", "090917.046000", "090917.046000", "090917.046000", "090917.046000", "090917.046000", "090917.062000", "090917.062000", "090917.062000", "090917.062000", "090917.062000", "090917.062000", "090917.062000", "090957.000000", "090957.000000", "090957.015000", "090957.015000", "090957.015000", "090957.015000", "090957.015000", "090957.015000", "090957.031000", "090957.031000", "090957.031000", "090957.031000", "090957.031000", "090957.031000", "090957.031000", "090957.046000", "090957.046000", "090957.046000", "090957.046000", "090957.046000", "091037.000000", "091037.015000", "091037.015000", "091037.015000", "091037.015000", "091037.015000", "091037.015000", "091037.015000", "091037.015000", "091037.031000", "091037.031000", "091037.031000", "091037.031000", "091037.046000", "091037.046000", "091037.046000", "091037.046000", "091037.046000", "091037.046000", "091037.046000", "091117.000000", "091117.015000", "091117.015000", "091117.015000", "091117.031000", "091117.031000", "091117.031000", "091117.031000", "091117.046000", "091117.046000", "091117.046000", "091117.046000", "091117.046000", "091117.046000", "091117.046000", "091117.046000", "091117.062000", "091117.062000", "091117.062000", "091117.062000", "091157.000000", "091157.000000", "091157.015000", "091157.015000", "091157.015000", "091157.015000", "091157.015000", "091157.015000", "091157.031000", "091157.031000", "091157.031000", "091157.031000", "091157.031000", "091157.046000", "091157.046000", "091157.046000", "091157.046000", "091157.046000", "091157.062000", "091157.062000", "091237.000000", "091237.015000", "091237.015000", "091237.015000", "091237.015000", "091237.015000", "091237.015000", "091237.031000", "091237.046000", "091237.046000", "091237.046000", "091237.046000", "091237.046000", "091237.046000", "091237.046000", "091237.046000", "091237.046000", "091237.062000", "091237.062000", "091237.062000", "091257.000000", "091257.000000", "091257.015000", "091257.015000", "091257.015000", "091257.015000", "091257.015000", "091257.015000", "091257.015000", "091257.015000", "091337.000000", "091337.015000", "091337.015000", "091337.015000", "091337.015000", "091337.031000", "091337.031000", "091337.031000", "091337.031000", "091337.031000", "091337.031000", "091337.031000", "091337.046000", "091337.046000", "091337.062000", "091337.062000", "091337.062000", "091337.062000", "091337.062000", "091337.062000", "091354.109000", "091354.109000", "091354.109000", "091354.109000", "091354.125000", "091354.125000", "091354.125000", "091354.125000", "091354.125000"],
      "InstanceNumber": [1, 2, 3, 4, 5, 6, 7, 8, 9, 10, 11, 12, 13, 14, 15, 16, 17, 18, 19, 20, 21, 22, 23, 24, 25, 26, 27, 28, 29, 30, 31, 32, 33, 34, 35, 36, 37, 38, 39, 40, 41, 42, 43, 44, 45, 46, 47, 48, 49, 50, 51, 52, 53, 54, 55, 56, 57, 58, 59, 60, 61, 62, 63, 64, 65, 66, 67, 68, 69, 70, 71, 72, 73, 74, 75, 76, 77, 78, 79, 80, 81, 82, 83, 84, 85, 86, 87, 88, 89, 90, 91, 92, 93, 94, 95, 96, 97, 98, 99, 100, 101, 102, 103, 104, 105, 106, 107, 108, 109, 110, 111, 112, 113, 114, 115, 116, 117, 118, 119, 120, 121, 122, 123, 124, 125, 126, 127, 128, 129, 130, 131, 132, 133, 134, 135, 136, 137, 138, 139, 140, 141, 142, 143, 144, 145, 146, 147, 148, 149, 150, 151, 152, 153, 154, 155, 156, 157, 158, 159, 160, 161, 162, 163, 164],
      "LargestImagePixelValue": [1964, 1879, 1897, 1883, 1877, 1854, 1853, 1803, 1818, 1822, 1813, 1819, 1781, 1835, 1847, 1806, 1842, 1795, 1806, 1833, 1824, 1830, 1819, 1856, 1848, 1785, 1805, 1779, 1819, 1817, 1820, 1803, 1831, 1839, 1801, 1780, 1779, 1785, 1818, 1776, 1809, 1756, 1773, 1763, 1810, 1784, 1759, 1780, 1770, 1825, 1766, 1799, 1793, 1866, 1783, 1807, 1782, 1795, 1843, 1826, 1816, 1834, 1796, 1788, 1800, 1795, 1772, 1783, 1819, 1792, 1846, 1798, 1822, 1803, 1784, 1799, 1834, 1851, 1826, 1781, 1824, 1830, 1827, 1780, 1804, 1818, 1840, 1789, 1776, 1811, 1796, 1788, 1848, 1799, 1818, 1858, 1846, 1824, 1788, 1813, 1824, 1784, 1788, 1793, 1786, 1787, 1795, 1807, 1791, 1788, 1799, 1797, 1822, 1819, 1797, 1790, 1802, 1791, 1785, 1827, 1796, 1799, 1791, 1814, 1813, 1816, 1853, 1833, 1816, 1805, 1797, 1811, 1811, 1806, 1815, 1824, 1828, 1807, 1817, 1842, 1815, 1803, 1774, 1793, 1789, 1802, 1806, 1801, 1824, 1789, 1828, 1841, 1875, 1880, 1847, 1833, 1804, 1834, 1808, 1837, 1829, 1819, 1826, 1833],
      "WindowCenter": [741.0, 741.0, 741.0, 739.0, 737.0, 735.0, 734.0, 734.0, 735.0, 735.0, 735.0, 734.0, 733.0, 733.0, 735.0, 735.0, 735.0, 733.0, 735.0, 735.0, 735.0, 736.0, 737.0, 737.0, 735.0, 734.0, 733.0, 734.0, 734.0, 735.0, 736.0, 736.0, 735.0, 735.0, 734.0, 735.0, 734.0, 735.0, 735.0, 734.0, 734.0, 734.0, 734.0, 735.0, 735.0, 734.0, 733.0, 733.0, 733.0, 733.0, 733.0, 734.0, 735.0, 736.0, 735.0, 734.0, 734.0, 736.0, 735.0, 735.0, 735.0, 737.0, 737.0, 735.0, 732.0, 732.0, 732.0, 732.0, 734.0, 736.0, 736.0, 736.0, 735.0, 734.0, 734.0, 735.0, 736.0, 735.0, 734.0, 734.0, 735.0, 736.0, 735.0, 734.0, 734.0, 735.0, 736.0, 734.0, 733.0, 734.0, 734.0, 734.0, 735.0, 735.0, 736.0, 736.0, 735.0, 734.0, 735.0, 735.0, 735.0, 735.0, 736.0, 736.0, 735.0, 737.0, 737.0, 736.0, 736.0, 736.0, 738.0, 738.0, 739.0, 737.0, 736.0, 735.0, 734.0, 734.0, 736.0, 738.0, 737.0, 735.0, 735.0, 736.0, 737.0, 737.0, 738.0, 739.0, 737.0, 736.0, 735.0, 735.0, 736.0, 736.0, 736.0, 738.0, 738.0, 738.0, 738.0, 738.0, 737.0, 736.0, 736.0, 735.0, 737.0, 736.0, 735.0, 736.0, 737.0, 738.0, 740.0, 740.0, 739.0, 739.0, 739.0, 737.0, 736.0, 736.0, 738.0, 738.0, 737.0, 737.0, 738.0, 738.0],
      "WindowWidth": [1597.0, 1594.0, 1593.0, 1588.0, 1582.0, 1577.0, 1576.0, 1576.0, 1577.0, 1580.0, 1579.0, 1577.0, 1574.0, 1574.0, 1578.0, 1577.0, 1577.0, 1574.0, 1578.0, 1578.0, 1577.0, 1580.0, 1585.0, 1584.0, 1579.0, 1575.0, 1574.0, 1575.0, 1576.0, 1578.0, 1582.0, 1580.0, 1580.0, 1578.0, 1577.0, 1579.0, 1577.0, 1577.0, 1579.0, 1576.0, 1575.0, 1576.0, 1576.0, 1578.0, 1578.0, 1576.0, 1574.0, 1574.0, 1572.0, 1572.0, 1573.0, 1577.0, 1579.0, 1581.0, 1577.0, 1576.0, 1576.0, 1581.0, 1579.0, 1578.0, 1579.0, 1584.0, 1584.0, 1577.0, 1572.0, 1571.0, 1571.0, 1572.0, 1575.0, 1581.0, 1581.0, 1581.0, 1578.0, 1576.0, 1576.0, 1580.0, 1582.0, 1578.0, 1576.0, 1577.0, 1580.0, 1582.0, 1579.0, 1577.0, 1577.0, 1579.0, 1581.0, 1576.0, 1573.0, 1576.0, 1577.0, 1576.0, 1580.0, 1578.0, 1580.0, 1581.0, 1578.0, 1577.0, 1577.0, 1579.0, 1579.0, 1579.0, 1580.0, 1581.0, 1580.0, 1584.0, 1583.0, 1581.0, 1581.0, 1581.0, 1586.0, 1587.0, 1589.0, 1585.0, 1580.0, 1577.0, 1576.0, 1575.0, 1581.0, 1587.0, 1583.0, 1579.0, 1580.0, 1582.0, 1584.0, 1585.0, 1587.0, 1591.0, 1582.0, 1580.0, 1579.0, 1580.0, 1580.0, 1581.0, 1582.0, 1586.0, 1586.0, 1587.0, 1587.0, 1586.0, 1584.0, 1580.0, 1580.0, 1580.0, 1584.0, 1582.0, 1580.0, 1581.0, 1585.0, 1587.0, 1592.0, 1592.0, 1590.0, 1590.0, 1589.0, 1583.0, 1581.0, 1580.0, 1586.0, 1586.0, 1585.0, 1584.0, 1588.0, 1588.0]
    },
    "slices": {}
  }
}