{
  "AcquisitionMatrixPE": 64,
  "AcquisitionNumber": 1,
  "AcquisitionTime": "09:21:13.392500",
  "BandwidthPerPixelPhaseEncode": 33.967,
  "BaseResolution": 64,
  "CoilCombinationMethod": "Sum of Squares",
  "CoilString": "C:HEA;HEP",
  "ConversionSoftware": "dcm2niix",
  "ConversionSoftwareVersion": "v1.0.20220720",
  "DerivedVendorReportedEchoSpacing": 0.000460005,
  "DeviceSerialNumber": "35193",
  "DwellTime": 3.1e-06,
  "EchoTime": 0.03,
  "EffectiveEchoSpacing": 0.000460005,
  "FlipAngle": 90,
  "HeudiconvVersion": "1.1.6",
  "ImageOrientationPatientDICOM": [1, 0, 0, 0, 1, 0],
  "ImageOrientationText": "Tra",
  "ImageType": [
    "ORIGINAL",
    "PRIMARY",
    "M",
    "ND",
    "MOSAIC"
],
  "ImagingFrequency": 123.254,
  "InPlanePhaseEncodingDirectionDICOM": "COL",
  "InstitutionAddress": "Xinjiekouwai Street No 19,Beijing,Haidian District,CN,100875",
  "InstitutionName": "Beijing Normal Universtiy/2773C4/",
  "InstitutionalDepartmentName": "Department",
  "MRAcquisitionType": "2D",
  "MagneticFieldStrength": 3,
  "Manufacturer": "Siemens",
  "ManufacturersModelName": "TrioTim",
  "MatrixCoilMode": "SENSE",
  "Modality": "MR",
  "NonlinearGradientCorrection": false,
  "PartialFourier": 1,
  "PatientPosition": "HFS",
  "PercentPhaseFOV": 100,
  "PercentSampling": 100,
  "PhaseEncodingDirection": "j-",
  "PhaseEncodingSteps": 64,
  "PhaseResolution": 1,
  "PixelBandwidth": 2520,
  "ProcedureStepDescription": "BNU_cst_2015^Guo.TaoMei",
  "ProtocolName": "ge_func_3x3x4_164",
  "PulseSequenceDetails": "%SiemensSeq%\\ep2d_bold",
  "ReceiveCoilName": "HeadMatrix",
  "ReconMatrixPE": 64,
  "RepetitionTime": 2,
  "SAR": 0.139384,
  "ScanOptions": "FS",
  "ScanningSequence": "EP",
  "SequenceName": "*epfid2d1_64",
  "SequenceVariant": "SK",
  "SeriesDescription": "ge_func_3x3x4_164",
  "SeriesNumber": 5,
  "ShimSetting": [-4517, -19406, -9796, 1336, -127, -601, 42, 74],
  "SliceThickness": 4,
  "SliceTiming": [0, 1.035, 0.0625, 1.095, 0.1225, 1.1575, 0.1825, 1.2175, 0.245, 1.2775, 0.305, 1.34, 0.365, 1.4, 0.4275, 1.46, 0.4875, 1.5225, 0.5475, 1.5825, 0.61, 1.6425, 0.67, 1.705, 0.73, 1.765, 0.7925, 1.825, 0.8525, 1.8875, 0.9125, 1.9475, 0.975],
  "SoftwareVersions": "syngo MR B17",
  "SpacingBetweenSlices": 4.6,
  "StationName": "MRC35193",
  "TaskName": "CognitiveControl",
  "TotalReadoutTime": 0.0289803,
  "TxRefAmp": 333.538,
  "dcmmeta_affine": [
    [-3.125, 0.0, 0.0, 102.69879150390625],
    [0.0, 3.125, 0.0, -88.77861785888672],
    [0.0, 0.0, 4.599999904632568, -69.55180358886719],
    [0.0, 0.0, 0.0, 1.0]
],
  "dcmmeta_reorient_transform": [
    [0.0, -1.0, 0.0, 63.0],
    [1.0, 0.0, 0.0, 0.0],
    [0.0, 0.0, 1.0, 0.0],
    [0.0, 0.0, 0.0, 1.0]
],
  "dcmmeta_shape": [64, 64, 33, 164],
  "dcmmeta_slice_dim": 2,
  "dcmmeta_version": 0.6,
  "global": {
    "const": {
      "AcquisitionMatrix": [64, 0, 0, 64],
      "AngioFlag": "N",
      "BitsAllocated": 16,
      "BitsStored": 12,
      "Columns": 384,
      "EchoNumbers": 1,
      "EchoTime": 30.0,
      "EchoTrainLength": 1,
      "FlipAngle": 90.0,
      "HighBit": 11,
      "ImageOrientationPatient": [1.0, 0.0, 0.0, 0.0, 1.0, 0.0],
      "ImagePositionPatient": [-602.69879508018, -608.09638595581, -69.551803588867],
      "ImageType": [
        "ORIGINAL",
        "PRIMARY",
        "M",
        "ND",
        "MOSAIC"
],
      "ImagedNucleus": "1H",
      "ImagingFrequency": 123.25358,
      "InPlanePhaseEncodingDirection": "COL",
      "MRAcquisitionType": "2D",
      "MagneticFieldStrength": 3.0,
      "Manufacturer": "SIEMENS",
      "ManufacturerModelName": "TrioTim",
      "Modality": "MR",
      "NumberOfAverages": 1.0,
      "NumberOfPhaseEncodingSteps": 64,
      "PercentPhaseFieldOfView": 100.0,
      "PercentSampling": 100.0,
      "PerformedProcedureStepStartTime": "090155.453000",
      "PhotometricInterpretation": "MONOCHROME2",
      "PixelBandwidth": 2520.0,
      "PixelRepresentation": 0,
      "PixelSpacing": [3.125, 3.125],
      "ProtocolName": "ge_func_3x3x4_164",
      "RepetitionTime": 2000.0,
      "Rows": 384,
      "SAR": 0.13938420325813,
      "SamplesPerPixel": 1,
      "ScanOptions": "FS",
      "ScanningSequence": "EP",
      "SequenceName": "*epfid2d1_64",
      "SequenceVariant": "SK",
      "SeriesDescription": "ge_func_3x3x4_164",
      "SeriesNumber": 5,
      "SeriesTime": "092212.531000",
      "SliceLocation": -69.551803588867,
      "SliceThickness": 4.0,
      "SmallestImagePixelValue": 0,
      "SoftwareVersions": "syngo MR B17",
      "SpacingBetweenSlices": 4.5999999046326,
      "SpecificCharacterSet": "ISO_IR 100",
      "StudyID": "1",
      "StudyTime": "090155.343000",
      "TransmitCoilName": "Body",
      "VariableFlipAngleFlag": "N",
      "WindowCenterWidthExplanation": "Algo1",
      "dBdt": 0.0},
    "slices": {}
  },
  "time": {
    "samples": {
      "AcquisitionNumber": [1, 2, 3, 4, 5, 6, 7, 8, 9, 10, 11, 12, 13, 14, 15, 16, 17, 18, 19, 20, 21, 22, 23, 24, 25, 26, 27, 28, 29, 30, 31, 32, 33, 34, 35, 36, 37, 38, 39, 40, 41, 42, 43, 44, 45, 46, 47, 48, 49, 50, 51, 52, 53, 54, 55, 56, 57, 58, 59, 60, 61, 62, 63, 64, 65, 66, 67, 68, 69, 70, 71, 72, 73, 74, 75, 76, 77, 78, 79, 80, 81, 82, 83, 84, 85, 86, 87, 88, 89, 90, 91, 92, 93, 94, 95, 96, 97, 98, 99, 100, 101, 102, 103, 104, 105, 106, 107, 108, 109, 110, 111, 112, 113, 114, 115, 116, 117, 118, 119, 120, 121, 122, 123, 124, 125, 126, 127, 128, 129, 130, 131, 132, 133, 134, 135, 136, 137, 138, 139, 140, 141, 142, 143, 144, 145, 146, 147, 148, 149, 150, 151, 152, 153, 154, 155, 156, 157, 158, 159, 160, 161, 162, 163, 164],
      "AcquisitionTime": ["092113.392500", "092115.402500", "092117.410000", "092119.417500", "092121.425000", "092123.432500", "092125.442500", "092127.450000", "092129.457500", "092131.465000", "092133.475000", "092135.482500", "092137.490000", "092139.497500", "092141.505000", "092143.515000", "092145.522500", "092147.530000", "092149.537500", "092151.545000", "092153.555000", "092155.562500", "092157.570000", "092159.577500", "092201.587500", "092203.595000", "092205.602500", "092207.610000", "092209.617500", "092211.627500", "092213.635000", "092215.642500", "092217.650000", "092219.657500", "092221.667500", "092223.675000", "092225.682500", "092227.690000", "092229.697500", "092231.707500", "092233.715000", "092235.722500", "092237.730000", "092239.740000", "092241.747500", "092243.755000", "092245.762500", "092247.770000", "092249.780000", "092251.787500", "092253.795000", "092255.802500", "092257.810000", "092259.820000", "092301.827500", "092303.835000", "092305.842500", "092307.852500", "092309.860000", "092311.867500", "092313.875000", "092315.882500", "092317.892500", "092319.900000", "092321.907500", "092323.915000", "092325.922500", "092327.932500", "092329.940000", "092331.947500", "092333.955000", "092335.965000", "092337.972500", "092339.980000", "092341.987500", "092343.995000", "092346.005000", "092348.012500", "092350.020000", "092352.027500", "092354.035000", "092356.045000", "092358.052500", "092400.060000", "092402.067500", "092404.075000", "092406.085000", "092408.092500", "092410.100000", "092412.107500", "092414.117500", "092416.125000", "092418.132500", "092420.140000", "092422.147500", "092424.157500", "092426.165000", "092428.172500", "092430.180000", "092432.187500", "092434.197500", "092436.205000", "092438.212500", "092440.220000", "092442.230000", "092444.237500", "092446.245000", "092448.252500", "092450.260000", "092452.270000", "092454.277500", "092456.285000", "092458.292500", "092500.300000", "092502.310000", "092504.317500", "092506.325000", "092508.332500", "092510.342500", "092512.350000", "092514.357500", "092516.365000", "092518.372500", "092520.382500", "092522.390000", "092524.397500", "092526.405000", "092528.412500", "092530.422500", "092532.430000", "092534.437500", "092536.445000", "092538.452500", "092540.462500", "092542.470000", "092544.477500", "092546.485000", "092548.495000", "092550.502500", "092552.510000", "092554.517500", "092556.525000", "092558.535000", "092600.542500", "092602.550000", "092604.557500", "092606.565000", "092608.575000", "092610.582500", "092612.590000", "092614.597500", "092616.607500", "092618.615000", "092620.622500", "092622.630000", "092624.637500", "092626.647500", "092628.655000", "092630.662500", "092632.670000", "092634.677500", "092636.687500", "092638.695000", "092640.702500"],
      "ContentTime": ["092212.546000", "092212.546000", "092212.546000", "092212.546000", "092212.546000", "092212.546000", "092212.562000", "092212.562000", "092212.562000", "092212.562000", "092212.562000", "092212.562000", "092212.578000", "092212.578000", "092212.578000", "092212.578000", "092212.593000", "092212.593000", "092212.593000", "092212.593000", "092212.593000", "092212.609000", "092212.609000", "092212.609000", "092212.609000", "092212.609000", "092212.609000", "092212.609000", "092252.531000", "092252.531000", "092252.546000", "092252.546000", "092252.546000", "092252.546000", "092252.546000", "092252.546000", "092252.546000", "092252.546000", "092252.562000", "092252.562000", "092252.562000", "092252.562000", "092252.562000", "092252.562000", "092252.562000", "092252.562000", "092252.578000", "092252.578000", "092312.531000", "092312.531000", "092312.546000", "092312.546000", "092312.546000", "092312.546000", "092312.546000", "092312.562000", "092312.562000", "092312.562000", "092352.531000", "092352.531000", "092352.546000", "092352.546000", "092352.546000", "092352.546000", "092352.546000", "092352.546000", "092352.562000", "092352.562000", "092352.578000", "092352.578000", "092352.578000", "092352.593000", "092352.593000", "092352.593000", "092352.593000", "092352.609000", "092352.609000", "092352.609000", "092432.531000", "092432.546000", "092432.546000", "092432.546000", "092432.546000", "092432.562000", "092432.562000", "092432.562000", "092432.562000", "092432.578000", "092432.578000", "092432.578000", "092432.593000", "092432.593000", "092432.593000", "092432.593000", "092432.593000", "092432.593000", "092432.593000", "092432.593000", "092512.531000", "092512.531000", "092512.546000", "092512.546000", "092512.546000", "092512.546000", "092512.546000", "092512.546000", "092512.546000", "092512.546000", "092512.562000", "092512.562000", "092512.562000", "092512.562000", "092512.562000", "092512.562000", "092512.562000", "092512.562000", "092512.578000", "092512.578000", "092552.531000", "092552.546000", "092552.546000", "092552.546000", "092552.546000", "092552.546000", "092552.546000", "092552.546000", "092552.562000", "092552.562000", "092552.562000", "092552.562000", "092552.562000", "092552.562000", "092552.562000", "092552.562000", "092552.578000", "092552.578000", "092552.578000", "092552.578000", "092632.531000", "092632.531000", "092632.546000", "092632.546000", "092632.546000", "092632.546000", "092632.546000", "092632.546000", "092632.546000", "092632.546000", "092632.562000", "092632.562000", "092632.562000", "092632.562000", "092632.578000", "092632.578000", "092632.578000", "092632.578000", "092632.578000", "092632.578000", "092642.703000", "092642.703000", "092642.703000", "092642.718000", "092642.718000", "092642.718000"],
      "InstanceCreationTime": ["092212.546000", "092212.546000", "092212.546000", "092212.546000", "092212.546000", "092212.546000", "092212.562000", "092212.562000", "092212.562000", "092212.562000", "092212.562000", "092212.562000", "092212.578000", "092212.578000", "092212.578000", "092212.578000", "092212.593000", "092212.593000", "092212.593000", "092212.593000", "092212.593000", "092212.609000", "092212.609000", "092212.609000", "092212.609000", "092212.609000", "092212.609000", "092212.609000", "092252.531000", "092252.531000", "092252.546000", "092252.546000", "092252.546000", "092252.546000", "092252.546000", "092252.546000", "092252.546000", "092252.546000", "092252.562000", "092252.562000", "092252.562000", "092252.562000", "092252.562000", "092252.562000", "092252.562000", "092252.562000", "092252.578000", "092252.578000", "092312.531000", "092312.531000", "092312.546000", "092312.546000", "092312.546000", "092312.546000", "092312.546000", "092312.562000", "092312.562000", "092312.562000", "092352.531000", "092352.531000", "092352.546000", "092352.546000", "092352.546000", "092352.546000", "092352.546000", "092352.546000", "092352.562000", "092352.562000", "092352.578000", "092352.578000", "092352.578000", "092352.593000", "092352.593000", "092352.593000", "092352.593000", "092352.609000", "092352.609000", "092352.609000", "092432.531000", "092432.546000", "092432.546000", "092432.546000", "092432.546000", "092432.562000", "092432.562000", "092432.562000", "092432.562000", "092432.578000", "092432.578000", "092432.578000", "092432.593000", "092432.593000", "092432.593000", "092432.593000", "092432.593000", "092432.593000", "092432.593000", "092432.593000", "092512.531000", "092512.531000", "092512.546000", "092512.546000", "092512.546000", "092512.546000", "092512.546000", "092512.546000", "092512.546000", "092512.546000", "092512.562000", "092512.562000", "092512.562000", "092512.562000", "092512.562000", "092512.562000", "092512.562000", "092512.562000", "092512.578000", "092512.578000", "092552.531000", "092552.546000", "092552.546000", "092552.546000", "092552.546000", "092552.546000", "092552.546000", "092552.546000", "092552.562000", "092552.562000", "092552.562000", "092552.562000", "092552.562000", "092552.562000", "092552.562000", "092552.562000", "092552.578000", "092552.578000", "092552.578000", "092552.578000", "092632.531000", "092632.531000", "092632.546000", "092632.546000", "092632.546000", "092632.546000", "092632.546000", "092632.546000", "092632.546000", "092632.546000", "092632.562000", "092632.562000", "092632.562000", "092632.562000", "092632.578000", "092632.578000", "092632.578000", "092632.578000", "092632.578000", "092632.578000", "092642.703000", "092642.703000", "092642.703000", "092642.718000", "092642.718000", "092642.718000"],
      "InstanceNumber": [1, 2, 3, 4, 5, 6, 7, 8, 9, 10, 11, 12, 13, 14, 15, 16, 17, 18, 19, 20, 21, 22, 23, 24, 25, 26, 27, 28, 29, 30, 31, 32, 33, 34, 35, 36, 37, 38, 39, 40, 41, 42, 43, 44, 45, 46, 47, 48, 49, 50, 51, 52, 53, 54, 55, 56, 57, 58, 59, 60, 61, 62, 63, 64, 65, 66, 67, 68, 69, 70, 71, 72, 73, 74, 75, 76, 77, 78, 79, 80, 81, 82, 83, 84, 85, 86, 87, 88, 89, 90, 91, 92, 93, 94, 95, 96, 97, 98, 99, 100, 101, 102, 103, 104, 105, 106, 107, 108, 109, 110, 111, 112, 113, 114, 115, 116, 117, 118, 119, 120, 121, 122, 123, 124, 125, 126, 127, 128, 129, 130, 131, 132, 133, 134, 135, 136, 137, 138, 139, 140, 141, 142, 143, 144, 145, 146, 147, 148, 149, 150, 151, 152, 153, 154, 155, 156, 157, 158, 159, 160, 161, 162, 163, 164],
      "LargestImagePixelValue": [1970, 1862, 1840, 1844, 1865, 1846, 1836, 1823, 1834, 1845, 1830, 1820, 1862, 1823, 1865, 1861, 1870, 1869, 1859, 1866, 1826, 1850, 1853, 1864, 1860, 1849, 1869, 1851, 1869, 1858, 1855, 1888, 1876, 1858, 1860, 1876, 1833, 1877, 1870, 1873, 1892, 1840, 1886, 1868, 1878, 1856, 1878, 1846, 1852, 1866, 1855, 1900, 1863, 1875, 1848, 1878, 1864, 1892, 1864, 1881, 1868, 1905, 1873, 1894, 1890, 1893, 1872, 1906, 1868, 1906, 1852, 1861, 1870, 1878, 1871, 1877, 1878, 1882, 1861, 1879, 1878, 1887, 1889, 1877, 1880, 1853, 1874, 1859, 1875, 1875, 1887, 1877, 1860, 1879, 1858, 1892, 1884, 1892, 1888, 1892, 1878, 1905, 1886, 1914, 1874, 1892, 1877, 1881, 1885, 1895, 1879, 1882, 1881, 1887, 1867, 1897, 1889, 1886, 1889, 1866, 1878, 1860, 1881, 1872, 1863, 1852, 1853, 1868, 1841, 1848, 1836, 1854, 1844, 1839, 1845, 1849, 1867, 1846, 1854, 1857, 1842, 1841, 1831, 1837, 1845, 1836, 1834, 1834, 1873, 1818, 1822, 1821, 1829, 1826, 1845, 1857, 1857, 1855, 1848, 1860, 1844, 1866, 1852, 1843],
      "WindowCenter": [743.0, 740.0, 739.0, 738.0, 739.0, 738.0, 738.0, 738.0, 738.0, 740.0, 739.0, 739.0, 739.0, 740.0, 741.0, 741.0, 741.0, 741.0, 740.0, 739.0, 739.0, 741.0, 741.0, 740.0, 739.0, 739.0, 739.0, 739.0, 739.0, 740.0, 740.0, 741.0, 741.0, 740.0, 739.0, 739.0, 740.0, 741.0, 741.0, 740.0, 741.0, 741.0, 741.0, 740.0, 740.0, 739.0, 739.0, 739.0, 739.0, 740.0, 740.0, 740.0, 739.0, 739.0, 739.0, 740.0, 740.0, 741.0, 740.0, 740.0, 740.0, 740.0, 740.0, 741.0, 741.0, 741.0, 742.0, 742.0, 741.0, 741.0, 740.0, 741.0, 741.0, 741.0, 741.0, 743.0, 743.0, 743.0, 741.0, 741.0, 741.0, 741.0, 741.0, 742.0, 741.0, 741.0, 741.0, 741.0, 742.0, 741.0, 741.0, 741.0, 741.0, 741.0, 741.0, 742.0, 743.0, 743.0, 742.0, 740.0, 739.0, 740.0, 739.0, 740.0, 740.0, 741.0, 741.0, 741.0, 741.0, 741.0, 741.0, 741.0, 740.0, 740.0, 741.0, 742.0, 742.0, 741.0, 742.0, 742.0, 742.0, 741.0, 740.0, 740.0, 741.0, 741.0, 741.0, 741.0, 742.0, 741.0, 742.0, 741.0, 741.0, 741.0, 740.0, 740.0, 740.0, 741.0, 742.0, 741.0, 741.0, 741.0, 741.0, 741.0, 741.0, 741.0, 741.0, 742.0, 742.0, 741.0, 741.0, 741.0, 742.0, 741.0, 741.0, 742.0, 742.0, 743.0, 743.0, 744.0, 743.0, 742.0, 742.0, 742.0],
      "WindowWidth": [1601.0, 1591.0, 1589.0, 1588.0, 1589.0, 1588.0, 1587.0, 1586.0, 1588.0, 1592.0, 1590.0, 1589.0, 1590.0, 1592.0, 1593.0, 1595.0, 1596.0, 1594.0, 1592.0, 1590.0, 1589.0, 1594.0, 1595.0, 1593.0, 1590.0, 1590.0, 1590.0, 1590.0, 1590.0, 1591.0, 1592.0, 1595.0, 1594.0, 1591.0, 1589.0, 1590.0, 1591.0, 1594.0, 1594.0, 1593.0, 1593.0, 1594.0, 1595.0, 1592.0, 1591.0, 1589.0, 1589.0, 1589.0, 1588.0, 1591.0, 1593.0, 1593.0, 1589.0, 1589.0, 1590.0, 1591.0, 1591.0, 1594.0, 1592.0, 1591.0, 1592.0, 1593.0, 1591.0, 1594.0, 1595.0, 1595.0, 1598.0, 1595.0, 1593.0, 1593.0, 1592.0, 1594.0, 1594.0, 1595.0, 1595.0, 1599.0, 1600.0, 1598.0, 1595.0, 1595.0, 1595.0, 1595.0, 1596.0, 1596.0, 1596.0, 1595.0, 1595.0, 1595.0, 1597.0, 1595.0, 1595.0, 1594.0, 1595.0, 1594.0, 1595.0, 1596.0, 1599.0, 1599.0, 1597.0, 1593.0, 1591.0, 1591.0, 1589.0, 1592.0, 1592.0, 1593.0, 1594.0, 1595.0, 1595.0, 1596.0, 1595.0, 1595.0, 1592.0, 1593.0, 1595.0, 1596.0, 1597.0, 1595.0, 1597.0, 1597.0, 1596.0, 1594.0, 1592.0, 1592.0, 1594.0, 1594.0, 1594.0, 1594.0, 1596.0, 1595.0, 1596.0, 1596.0, 1594.0, 1594.0, 1592.0, 1591.0, 1592.0, 1595.0, 1597.0, 1595.0, 1595.0, 1594.0, 1595.0, 1595.0, 1595.0, 1595.0, 1596.0, 1596.0, 1597.0, 1594.0, 1594.0, 1596.0, 1597.0, 1596.0, 1596.0, 1596.0, 1598.0, 1601.0, 1601.0, 1602.0, 1600.0, 1598.0, 1597.0, 1597.0]
    },
    "slices": {}
  }
}