{
  "AcquisitionMatrixPE": 64,
  "AcquisitionNumber": 1,
  "AcquisitionTime": "15:05:38.932500",
  "BandwidthPerPixelPhaseEncode": 33.967,
  "BaseResolution": 64,
  "CoilCombinationMethod": "Sum of Squares",
  "CoilString": "C:HEA;HEP",
  "ConversionSoftware": "dcm2niix",
  "ConversionSoftwareVersion": "v1.0.20220720",
  "DerivedVendorReportedEchoSpacing": 0.000460005,
  "DeviceSerialNumber": "35193",
  "DwellTime": 3.1e-06,
  "EchoTime": 0.03,
  "EffectiveEchoSpacing": 0.000460005,
  "FlipAngle": 90,
  "HeudiconvVersion": "1.1.6",
  "ImageOrientationPatientDICOM": [1, 0, 0, 0, 1, 0],
  "ImageOrientationText": "Tra",
  "ImageType": [
    "ORIGINAL",
    "PRIMARY",
    "M",
    "ND",
    "MOSAIC"
],
  "ImagingFrequency": 123.254,
  "InPlanePhaseEncodingDirectionDICOM": "COL",
  "InstitutionAddress": "Xinjiekouwai Street No 19,Beijing,Haidian District,CN,100875",
  "InstitutionName": "BNU MRI Center",
  "InstitutionalDepartmentName": "Department",
  "MRAcquisitionType": "2D",
  "MagneticFieldStrength": 3,
  "Manufacturer": "Siemens",
  "ManufacturersModelName": "TrioTim",
  "MatrixCoilMode": "SENSE",
  "Modality": "MR",
  "NonlinearGradientCorrection": false,
  "PartialFourier": 1,
  "PatientPosition": "HFS",
  "PercentPhaseFOV": 100,
  "PercentSampling": 100,
  "PhaseEncodingDirection": "j-",
  "PhaseEncodingSteps": 64,
  "PhaseResolution": 1,
  "PixelBandwidth": 2520,
  "ProcedureStepDescription": "BNU_cst_2015^Guo.TaoMei",
  "ProtocolName": "ge_func_3x3x4_164",
  "PulseSequenceDetails": "%SiemensSeq%\\ep2d_bold",
  "ReceiveCoilName": "HeadMatrix",
  "ReconMatrixPE": 64,
  "RepetitionTime": 2,
  "SAR": 0.135898,
  "ScanOptions": "FS",
  "ScanningSequence": "EP",
  "SequenceName": "*epfid2d1_64",
  "SequenceVariant": "SK",
  "SeriesDescription": "ge_func_3x3x4_164",
  "SeriesNumber": 2,
  "ShimSetting": [-4473, -19469, -9795, 1253, 127, -652, 62, 23],
  "SliceThickness": 4,
  "SliceTiming": [0, 1.0325, 0.06, 1.095, 0.12, 1.155, 0.1825, 1.215, 0.2425, 1.2775, 0.3025, 1.3375, 0.365, 1.3975, 0.425, 1.46, 0.485, 1.52, 0.5475, 1.58, 0.6075, 1.6425, 0.6675, 1.7025, 0.73, 1.7625, 0.79, 1.825, 0.85, 1.885, 0.9125, 1.945, 0.9725],
  "SoftwareVersions": "syngo MR B17",
  "SpacingBetweenSlices": 4.6,
  "StationName": "MRC35193",
  "TaskName": "CognitiveControl",
  "TotalReadoutTime": 0.0289803,
  "TxRefAmp": 327.773,
  "dcmmeta_affine": [
    [-3.125, 0.0, 0.0, 100.67469787597656],
    [0.0, 3.125, 0.0, -90.8027114868164],
    [0.0, 0.0, 4.599999904632568, -47.286746978759766],
    [0.0, 0.0, 0.0, 1.0]
],
  "dcmmeta_reorient_transform": [
    [0.0, -1.0, 0.0, 63.0],
    [1.0, 0.0, 0.0, 0.0],
    [0.0, 0.0, 1.0, 0.0],
    [0.0, 0.0, 0.0, 1.0]
],
  "dcmmeta_shape": [64, 64, 33, 164],
  "dcmmeta_slice_dim": 2,
  "dcmmeta_version": 0.6,
  "global": {
    "const": {
      "AcquisitionMatrix": [64, 0, 0, 64],
      "AngioFlag": "N",
      "BitsAllocated": 16,
      "BitsStored": 12,
      "Columns": 384,
      "EchoNumbers": 1,
      "EchoTime": 30.0,
      "EchoTrainLength": 1,
      "FlipAngle": 90.0,
      "HighBit": 11,
      "ImageOrientationPatient": [1.0, 0.0, 0.0, 0.0, 1.0, 0.0],
      "ImagePositionPatient": [-600.67469877005, -606.07228899002, -47.28674697876],
      "ImageType": [
        "ORIGINAL",
        "PRIMARY",
        "M",
        "ND",
        "MOSAIC"
],
      "ImagedNucleus": "1H",
      "ImagingFrequency": 123.253887,
      "InPlanePhaseEncodingDirection": "COL",
      "MRAcquisitionType": "2D",
      "MagneticFieldStrength": 3.0,
      "Manufacturer": "SIEMENS",
      "ManufacturerModelName": "TrioTim",
      "Modality": "MR",
      "NumberOfAverages": 1.0,
      "NumberOfPhaseEncodingSteps": 64,
      "PercentPhaseFieldOfView": 100.0,
      "PercentSampling": 100.0,
      "PerformedProcedureStepStartTime": "150236.765000",
      "PhotometricInterpretation": "MONOCHROME2",
      "PixelBandwidth": 2520.0,
      "PixelRepresentation": 0,
      "PixelSpacing": [3.125, 3.125],
      "ProtocolName": "ge_func_3x3x4_164",
      "RepetitionTime": 2000.0,
      "Rows": 384,
      "SAR": 0.13589814636709,
      "SamplesPerPixel": 1,
      "ScanOptions": "FS",
      "ScanningSequence": "EP",
      "SequenceName": "*epfid2d1_64",
      "SequenceVariant": "SK",
      "SeriesDescription": "ge_func_3x3x4_164",
      "SeriesNumber": 2,
      "SeriesTime": "150627.500000",
      "SliceLocation": -47.28674697876,
      "SliceThickness": 4.0,
      "SmallestImagePixelValue": 0,
      "SoftwareVersions": "syngo MR B17",
      "SpacingBetweenSlices": 4.6000000238419,
      "SpecificCharacterSet": "ISO_IR 100",
      "StudyID": "1",
      "StudyTime": "150236.687000",
      "TransmitCoilName": "Body",
      "VariableFlipAngleFlag": "N",
      "WindowCenterWidthExplanation": "Algo1",
      "dBdt": 0.0},
    "slices": {}
  },
  "time": {
    "samples": {
      "AcquisitionNumber": [1, 2, 3, 4, 5, 6, 7, 8, 9, 10, 11, 12, 13, 14, 15, 16, 17, 18, 19, 20, 21, 22, 23, 24, 25, 26, 27, 28, 29, 30, 31, 32, 33, 34, 35, 36, 37, 38, 39, 40, 41, 42, 43, 44, 45, 46, 47, 48, 49, 50, 51, 52, 53, 54, 55, 56, 57, 58, 59, 60, 61, 62, 63, 64, 65, 66, 67, 68, 69, 70, 71, 72, 73, 74, 75, 76, 77, 78, 79, 80, 81, 82, 83, 84, 85, 86, 87, 88, 89, 90, 91, 92, 93, 94, 95, 96, 97, 98, 99, 100, 101, 102, 103, 104, 105, 106, 107, 108, 109, 110, 111, 112, 113, 114, 115, 116, 117, 118, 119, 120, 121, 122, 123, 124, 125, 126, 127, 128, 129, 130, 131, 132, 133, 134, 135, 136, 137, 138, 139, 140, 141, 142, 143, 144, 145, 146, 147, 148, 149, 150, 151, 152, 153, 154, 155, 156, 157, 158, 159, 160, 161, 162, 163, 164],
      "AcquisitionTime": ["150538.932500", "150540.940000", "150542.947500", "150544.955000", "150546.965000", "150548.972500", "150550.980000", "150552.987500", "150554.997500", "150557.005000", "150559.012500", "150601.020000", "150603.027500", "150605.037500", "150607.045000", "150609.052500", "150611.060000", "150613.067500", "150615.077500", "150617.085000", "150619.092500", "150621.100000", "150623.107500", "150625.117500", "150627.125000", "150629.132500", "150631.140000", "150633.150000", "150635.157500", "150637.165000", "150639.172500", "150641.180000", "150643.190000", "150645.197500", "150647.205000", "150649.212500", "150651.220000", "150653.230000", "150655.237500", "150657.245000", "150659.252500", "150701.262500", "150703.270000", "150705.277500", "150707.285000", "150709.292500", "150711.302500", "150713.310000", "150715.317500", "150717.325000", "150719.332500", "150721.342500", "150723.350000", "150725.357500", "150727.365000", "150729.375000", "150731.382500", "150733.390000", "150735.397500", "150737.405000", "150739.415000", "150741.422500", "150743.430000", "150745.437500", "150747.445000", "150749.455000", "150751.462500", "150753.470000", "150755.477500", "150757.485000", "150759.495000", "150801.502500", "150803.510000", "150805.517500", "150807.527500", "150809.535000", "150811.542500", "150813.550000", "150815.557500", "150817.567500", "150819.575000", "150821.582500", "150823.590000", "150825.597500", "150827.607500", "150829.615000", "150831.622500", "150833.630000", "150835.640000", "150837.647500", "150839.655000", "150841.662500", "150843.670000", "150845.680000", "150847.687500", "150849.695000", "150851.702500", "150853.710000", "150855.720000", "150857.727500", "150859.735000", "150901.742500", "150903.752500", "150905.760000", "150907.767500", "150909.775000", "150911.782500", "150913.792500", "150915.800000", "150917.807500", "150919.815000", "150921.822500", "150923.832500", "150925.840000", "150927.847500", "150929.855000", "150931.862500", "150933.872500", "150935.880000", "150937.887500", "150939.895000", "150941.905000", "150943.912500", "150945.920000", "150947.927500", "150949.935000", "150951.945000", "150953.952500", "150955.960000", "150957.967500", "150959.975000", "151001.985000", "151003.992500", "151006.000000", "151008.007500", "151010.017500", "151012.025000", "151014.032500", "151016.040000", "151018.047500", "151020.057500", "151022.065000", "151024.072500", "151026.080000", "151028.087500", "151030.097500", "151032.105000", "151034.112500", "151036.120000", "151038.130000", "151040.137500", "151042.145000", "151044.152500", "151046.160000", "151048.170000", "151050.177500", "151052.185000", "151054.192500", "151056.200000", "151058.210000", "151100.217500", "151102.225000", "151104.232500", "151106.240000"],
      "ContentTime": ["150627.500000", "150627.500000", "150627.500000", "150627.500000", "150627.500000", "150627.515000", "150627.515000", "150627.531000", "150627.531000", "150627.531000", "150627.531000", "150627.531000", "150627.531000", "150627.531000", "150627.531000", "150627.546000", "150627.546000", "150627.546000", "150627.546000", "150627.546000", "150627.546000", "150627.546000", "150627.546000", "150707.484000", "150707.500000", "150707.500000", "150707.500000", "150707.500000", "150707.500000", "150707.500000", "150707.500000", "150707.515000", "150707.515000", "150707.515000", "150707.515000", "150707.515000", "150707.515000", "150707.515000", "150707.515000", "150707.515000", "150707.531000", "150707.531000", "150707.531000", "150747.484000", "150747.500000", "150747.500000", "150747.500000", "150747.500000", "150747.500000", "150747.500000", "150747.500000", "150747.515000", "150747.515000", "150747.515000", "150747.515000", "150747.531000", "150747.531000", "150747.531000", "150747.531000", "150747.531000", "150747.531000", "150747.531000", "150747.531000", "150827.484000", "150827.500000", "150827.500000", "150827.500000", "150827.500000", "150827.515000", "150827.515000", "150827.515000", "150827.515000", "150827.531000", "150827.531000", "150827.531000", "150827.531000", "150827.531000", "150827.531000", "150827.531000", "150827.546000", "150827.546000", "150827.562000", "150827.562000", "150907.484000", "150907.500000", "150907.500000", "150907.500000", "150907.515000", "150907.515000", "150907.515000", "150907.515000", "150907.515000", "150907.531000", "150907.531000", "150907.531000", "150907.531000", "150907.531000", "150907.531000", "150907.531000", "150907.531000", "150907.546000", "150907.546000", "150907.546000", "150947.484000", "150947.500000", "150947.500000", "150947.500000", "150947.500000", "150947.500000", "150947.500000", "150947.500000", "150947.500000", "150947.515000", "150947.515000", "150947.515000", "150947.515000", "150947.515000", "150947.515000", "150947.515000", "150947.531000", "150947.531000", "150947.531000", "150947.531000", "151027.484000", "151027.500000", "151027.500000", "151027.515000", "151027.515000", "151027.515000", "151027.531000", "151027.531000", "151027.531000", "151027.531000", "151027.531000", "151027.531000", "151027.546000", "151027.546000", "151027.546000", "151027.546000", "151027.546000", "151027.546000", "151027.546000", "151027.546000", "151107.484000", "151107.500000", "151107.500000", "151107.500000", "151107.500000", "151107.500000", "151107.500000", "151107.500000", "151107.500000", "151107.515000", "151107.515000", "151107.515000", "151107.515000", "151107.515000", "151107.515000", "151107.515000", "151107.531000", "151107.531000", "151107.531000", "151107.531000", "151107.859000"],
      "InstanceCreationTime": ["150627.500000", "150627.500000", "150627.500000", "150627.500000", "150627.500000", "150627.515000", "150627.515000", "150627.531000", "150627.531000", "150627.531000", "150627.531000", "150627.531000", "150627.531000", "150627.531000", "150627.531000", "150627.546000", "150627.546000", "150627.546000", "150627.546000", "150627.546000", "150627.546000", "150627.546000", "150627.546000", "150707.484000", "150707.500000", "150707.500000", "150707.500000", "150707.500000", "150707.500000", "150707.500000", "150707.500000", "150707.515000", "150707.515000", "150707.515000", "150707.515000", "150707.515000", "150707.515000", "150707.515000", "150707.515000", "150707.515000", "150707.531000", "150707.531000", "150707.531000", "150747.484000", "150747.500000", "150747.500000", "150747.500000", "150747.500000", "150747.500000", "150747.500000", "150747.500000", "150747.515000", "150747.515000", "150747.515000", "150747.515000", "150747.531000", "150747.531000", "150747.531000", "150747.531000", "150747.531000", "150747.531000", "150747.531000", "150747.531000", "150827.484000", "150827.500000", "150827.500000", "150827.500000", "150827.500000", "150827.515000", "150827.515000", "150827.515000", "150827.515000", "150827.531000", "150827.531000", "150827.531000", "150827.531000", "150827.531000", "150827.531000", "150827.531000", "150827.546000", "150827.546000", "150827.562000", "150827.562000", "150907.484000", "150907.500000", "150907.500000", "150907.500000", "150907.515000", "150907.515000", "150907.515000", "150907.515000", "150907.515000", "150907.531000", "150907.531000", "150907.531000", "150907.531000", "150907.531000", "150907.531000", "150907.531000", "150907.531000", "150907.546000", "150907.546000", "150907.546000", "150947.484000", "150947.500000", "150947.500000", "150947.500000", "150947.500000", "150947.500000", "150947.500000", "150947.500000", "150947.500000", "150947.515000", "150947.515000", "150947.515000", "150947.515000", "150947.515000", "150947.515000", "150947.515000", "150947.531000", "150947.531000", "150947.531000", "150947.531000", "151027.484000", "151027.500000", "151027.500000", "151027.515000", "151027.515000", "151027.515000", "151027.531000", "151027.531000", "151027.531000", "151027.531000", "151027.531000", "151027.531000", "151027.546000", "151027.546000", "151027.546000", "151027.546000", "151027.546000", "151027.546000", "151027.546000", "151027.546000", "151107.484000", "151107.500000", "151107.500000", "151107.500000", "151107.500000", "151107.500000", "151107.500000", "151107.500000", "151107.500000", "151107.515000", "151107.515000", "151107.515000", "151107.515000", "151107.515000", "151107.515000", "151107.515000", "151107.531000", "151107.531000", "151107.531000", "151107.531000", "151107.859000"],
      "InstanceNumber": [1, 2, 3, 4, 5, 6, 7, 8, 9, 10, 11, 12, 13, 14, 15, 16, 17, 18, 19, 20, 21, 22, 23, 24, 25, 26, 27, 28, 29, 30, 31, 32, 33, 34, 35, 36, 37, 38, 39, 40, 41, 42, 43, 44, 45, 46, 47, 48, 49, 50, 51, 52, 53, 54, 55, 56, 57, 58, 59, 60, 61, 62, 63, 64, 65, 66, 67, 68, 69, 70, 71, 72, 73, 74, 75, 76, 77, 78, 79, 80, 81, 82, 83, 84, 85, 86, 87, 88, 89, 90, 91, 92, 93, 94, 95, 96, 97, 98, 99, 100, 101, 102, 103, 104, 105, 106, 107, 108, 109, 110, 111, 112, 113, 114, 115, 116, 117, 118, 119, 120, 121, 122, 123, 124, 125, 126, 127, 128, 129, 130, 131, 132, 133, 134, 135, 136, 137, 138, 139, 140, 141, 142, 143, 144, 145, 146, 147, 148, 149, 150, 151, 152, 153, 154, 155, 156, 157, 158, 159, 160, 161, 162, 163, 164],
      "LargestImagePixelValue": [2031, 1954, 1944, 1939, 1935, 1902, 1926, 1908, 1925, 1924, 1928, 1917, 1914, 1900, 1920, 1930, 1936, 1916, 1942, 1912, 1899, 1912, 1920, 1923, 1904, 1905, 1919, 1917, 1919, 1918, 1919, 1927, 1916, 1921, 1914, 1923, 1924, 1918, 1922, 1912, 1916, 1923, 1931, 1910, 1912, 1937, 1918, 1912, 1931, 1931, 1905, 1925, 1913, 1920, 1915, 1916, 1899, 1898, 1907, 1895, 1910, 1895, 1899, 1902, 1903, 1922, 1913, 1923, 1932, 1928, 1931, 1909, 1916, 1910, 1902, 1910, 1915, 1926, 1913, 1911, 1916, 1923, 1916, 1938, 1941, 1934, 1939, 1918, 1923, 1933, 1935, 1949, 1919, 1916, 1942, 1932, 1935, 1918, 1933, 1924, 1913, 1918, 1937, 1943, 1914, 1910, 1910, 1931, 1939, 1921, 1917, 1917, 1931, 1929, 1939, 1909, 1940, 1944, 1934, 1947, 1937, 1941, 1941, 1942, 1928, 1931, 1919, 1913, 1935, 1938, 1935, 1921, 1929, 1932, 2033, 1921, 1905, 1928, 1943, 1921, 1929, 1939, 1931, 1924, 1937, 1925, 1935, 1938, 1913, 1924, 1932, 1940, 1927, 1910, 1906, 1982, 1936, 1932, 1915, 1924, 1930, 1931, 1938, 1948],
      "WindowCenter": [757.0, 756.0, 757.0, 756.0, 756.0, 755.0, 755.0, 755.0, 754.0, 754.0, 754.0, 754.0, 754.0, 755.0, 756.0, 755.0, 756.0, 755.0, 756.0, 755.0, 755.0, 755.0, 755.0, 755.0, 755.0, 755.0, 756.0, 755.0, 755.0, 755.0, 755.0, 755.0, 755.0, 755.0, 755.0, 755.0, 755.0, 755.0, 756.0, 755.0, 755.0, 755.0, 756.0, 754.0, 755.0, 755.0, 754.0, 755.0, 755.0, 756.0, 756.0, 756.0, 756.0, 755.0, 755.0, 755.0, 755.0, 756.0, 756.0, 755.0, 756.0, 755.0, 755.0, 755.0, 755.0, 755.0, 755.0, 755.0, 755.0, 754.0, 755.0, 755.0, 755.0, 754.0, 755.0, 754.0, 754.0, 755.0, 754.0, 755.0, 755.0, 755.0, 754.0, 754.0, 755.0, 754.0, 755.0, 754.0, 754.0, 754.0, 755.0, 755.0, 754.0, 755.0, 755.0, 755.0, 754.0, 754.0, 754.0, 754.0, 755.0, 754.0, 755.0, 755.0, 754.0, 754.0, 754.0, 755.0, 755.0, 754.0, 754.0, 754.0, 755.0, 755.0, 755.0, 755.0, 755.0, 755.0, 755.0, 755.0, 755.0, 755.0, 756.0, 756.0, 755.0, 756.0, 755.0, 755.0, 755.0, 754.0, 754.0, 754.0, 754.0, 755.0, 755.0, 754.0, 754.0, 754.0, 754.0, 754.0, 754.0, 755.0, 755.0, 755.0, 755.0, 754.0, 754.0, 755.0, 754.0, 755.0, 755.0, 756.0, 754.0, 754.0, 755.0, 755.0, 755.0, 754.0, 755.0, 755.0, 754.0, 755.0, 754.0, 755.0],
      "WindowWidth": [1665.0, 1660.0, 1663.0, 1663.0, 1661.0, 1658.0, 1658.0, 1657.0, 1655.0, 1656.0, 1655.0, 1656.0, 1656.0, 1659.0, 1660.0, 1659.0, 1660.0, 1659.0, 1661.0, 1659.0, 1659.0, 1659.0, 1659.0, 1659.0, 1658.0, 1660.0, 1661.0, 1658.0, 1658.0, 1658.0, 1659.0, 1659.0, 1659.0, 1659.0, 1658.0, 1659.0, 1659.0, 1659.0, 1661.0, 1660.0, 1659.0, 1659.0, 1660.0, 1657.0, 1657.0, 1657.0, 1657.0, 1657.0, 1659.0, 1661.0, 1661.0, 1661.0, 1660.0, 1658.0, 1659.0, 1659.0, 1659.0, 1659.0, 1660.0, 1658.0, 1660.0, 1657.0, 1657.0, 1660.0, 1659.0, 1658.0, 1659.0, 1658.0, 1658.0, 1657.0, 1658.0, 1657.0, 1658.0, 1657.0, 1657.0, 1656.0, 1656.0, 1658.0, 1655.0, 1657.0, 1657.0, 1658.0, 1657.0, 1657.0, 1660.0, 1655.0, 1658.0, 1656.0, 1657.0, 1656.0, 1658.0, 1659.0, 1656.0, 1659.0, 1657.0, 1658.0, 1657.0, 1656.0, 1656.0, 1657.0, 1657.0, 1656.0, 1659.0, 1658.0, 1656.0, 1656.0, 1656.0, 1658.0, 1658.0, 1657.0, 1656.0, 1656.0, 1658.0, 1659.0, 1659.0, 1659.0, 1658.0, 1659.0, 1659.0, 1659.0, 1659.0, 1658.0, 1661.0, 1661.0, 1660.0, 1661.0, 1659.0, 1659.0, 1658.0, 1657.0, 1657.0, 1657.0, 1655.0, 1657.0, 1658.0, 1655.0, 1656.0, 1655.0, 1656.0, 1654.0, 1656.0, 1658.0, 1658.0, 1658.0, 1657.0, 1657.0, 1656.0, 1657.0, 1655.0, 1658.0, 1659.0, 1660.0, 1656.0, 1656.0, 1657.0, 1659.0, 1657.0, 1656.0, 1658.0, 1658.0, 1656.0, 1658.0, 1657.0, 1658.0]
    },
    "slices": {}
  }
}