{
  "AcquisitionMatrixPE": 64,
  "AcquisitionNumber": 1,
  "AcquisitionTime": "15:12:29.712500",
  "BandwidthPerPixelPhaseEncode": 33.967,
  "BaseResolution": 64,
  "CoilCombinationMethod": "Sum of Squares",
  "CoilString": "C:HEA;HEP",
  "ConversionSoftware": "dcm2niix",
  "ConversionSoftwareVersion": "v1.0.20220720",
  "DerivedVendorReportedEchoSpacing": 0.000460005,
  "DeviceSerialNumber": "35193",
  "DwellTime": 3.1e-06,
  "EchoTime": 0.03,
  "EffectiveEchoSpacing": 0.000460005,
  "FlipAngle": 90,
  "HeudiconvVersion": "1.1.6",
  "ImageOrientationPatientDICOM": [1, 0, 0, 0, 1, 0],
  "ImageOrientationText": "Tra",
  "ImageType": [
    "ORIGINAL",
    "PRIMARY",
    "M",
    "ND",
    "MOSAIC"
],
  "ImagingFrequency": 123.254,
  "InPlanePhaseEncodingDirectionDICOM": "COL",
  "InstitutionAddress": "Xinjiekouwai Street No 19,Beijing,Haidian District,CN,100875",
  "InstitutionName": "BNU MRI Center",
  "InstitutionalDepartmentName": "Department",
  "MRAcquisitionType": "2D",
  "MagneticFieldStrength": 3,
  "Manufacturer": "Siemens",
  "ManufacturersModelName": "TrioTim",
  "MatrixCoilMode": "SENSE",
  "Modality": "MR",
  "NonlinearGradientCorrection": false,
  "PartialFourier": 1,
  "PatientPosition": "HFS",
  "PercentPhaseFOV": 100,
  "PercentSampling": 100,
  "PhaseEncodingDirection": "j-",
  "PhaseEncodingSteps": 64,
  "PhaseResolution": 1,
  "PixelBandwidth": 2520,
  "ProcedureStepDescription": "BNU_cst_2015^Guo.TaoMei",
  "ProtocolName": "ge_func_3x3x4_164",
  "PulseSequenceDetails": "%SiemensSeq%\\ep2d_bold",
  "ReceiveCoilName": "HeadMatrix",
  "ReconMatrixPE": 64,
  "RepetitionTime": 2,
  "SAR": 0.135898,
  "ScanOptions": "FS",
  "ScanningSequence": "EP",
  "SequenceName": "*epfid2d1_64",
  "SequenceVariant": "SK",
  "SeriesDescription": "ge_func_3x3x4_164",
  "SeriesNumber": 3,
  "ShimSetting": [-4473, -19469, -9795, 1253, 127, -652, 62, 23],
  "SliceThickness": 4,
  "SliceTiming": [0, 1.035, 0.0625, 1.095, 0.1225, 1.1575, 0.1825, 1.2175, 0.245, 1.2775, 0.305, 1.34, 0.365, 1.4, 0.4275, 1.46, 0.4875, 1.5225, 0.5475, 1.5825, 0.61, 1.6425, 0.67, 1.705, 0.73, 1.765, 0.7925, 1.825, 0.8525, 1.8875, 0.9125, 1.9475, 0.975],
  "SoftwareVersions": "syngo MR B17",
  "SpacingBetweenSlices": 4.6,
  "StationName": "MRC35193",
  "TaskName": "CognitiveControl",
  "TotalReadoutTime": 0.0289803,
  "TxRefAmp": 327.773,
  "dcmmeta_affine": [
    [-3.125, 0.0, 0.0, 100.67469787597656],
    [0.0, 3.125, 0.0, -90.8027114868164],
    [0.0, 0.0, 4.599999904632568, -47.286746978759766],
    [0.0, 0.0, 0.0, 1.0]
],
  "dcmmeta_reorient_transform": [
    [0.0, -1.0, 0.0, 63.0],
    [1.0, 0.0, 0.0, 0.0],
    [0.0, 0.0, 1.0, 0.0],
    [0.0, 0.0, 0.0, 1.0]
],
  "dcmmeta_shape": [64, 64, 33, 164],
  "dcmmeta_slice_dim": 2,
  "dcmmeta_version": 0.6,
  "global": {
    "const": {
      "AcquisitionMatrix": [64, 0, 0, 64],
      "AngioFlag": "N",
      "BitsAllocated": 16,
      "BitsStored": 12,
      "Columns": 384,
      "EchoNumbers": 1,
      "EchoTime": 30.0,
      "EchoTrainLength": 1,
      "FlipAngle": 90.0,
      "HighBit": 11,
      "ImageOrientationPatient": [1.0, 0.0, 0.0, 0.0, 1.0, 0.0],
      "ImagePositionPatient": [-600.67469877005, -606.07228899002, -47.28674697876],
      "ImageType": [
        "ORIGINAL",
        "PRIMARY",
        "M",
        "ND",
        "MOSAIC"
],
      "ImagedNucleus": "1H",
      "ImagingFrequency": 123.253887,
      "InPlanePhaseEncodingDirection": "COL",
      "MRAcquisitionType": "2D",
      "MagneticFieldStrength": 3.0,
      "Manufacturer": "SIEMENS",
      "ManufacturerModelName": "TrioTim",
      "Modality": "MR",
      "NumberOfAverages": 1.0,
      "NumberOfPhaseEncodingSteps": 64,
      "PercentPhaseFieldOfView": 100.0,
      "PercentSampling": 100.0,
      "PerformedProcedureStepStartTime": "150236.765000",
      "PhotometricInterpretation": "MONOCHROME2",
      "PixelBandwidth": 2520.0,
      "PixelRepresentation": 0,
      "PixelSpacing": [3.125, 3.125],
      "ProtocolName": "ge_func_3x3x4_164",
      "RepetitionTime": 2000.0,
      "Rows": 384,
      "SAR": 0.13589814636709,
      "SamplesPerPixel": 1,
      "ScanOptions": "FS",
      "ScanningSequence": "EP",
      "SequenceName": "*epfid2d1_64",
      "SequenceVariant": "SK",
      "SeriesDescription": "ge_func_3x3x4_164",
      "SeriesNumber": 3,
      "SeriesTime": "151328.468000",
      "SliceLocation": -47.28674697876,
      "SliceThickness": 4.0,
      "SmallestImagePixelValue": 0,
      "SoftwareVersions": "syngo MR B17",
      "SpacingBetweenSlices": 4.6000000238419,
      "SpecificCharacterSet": "ISO_IR 100",
      "StudyID": "1",
      "StudyTime": "150236.687000",
      "TransmitCoilName": "Body",
      "VariableFlipAngleFlag": "N",
      "WindowCenterWidthExplanation": "Algo1",
      "dBdt": 0.0},
    "slices": {}
  },
  "time": {
    "samples": {
      "AcquisitionNumber": [1, 2, 3, 4, 5, 6, 7, 8, 9, 10, 11, 12, 13, 14, 15, 16, 17, 18, 19, 20, 21, 22, 23, 24, 25, 26, 27, 28, 29, 30, 31, 32, 33, 34, 35, 36, 37, 38, 39, 40, 41, 42, 43, 44, 45, 46, 47, 48, 49, 50, 51, 52, 53, 54, 55, 56, 57, 58, 59, 60, 61, 62, 63, 64, 65, 66, 67, 68, 69, 70, 71, 72, 73, 74, 75, 76, 77, 78, 79, 80, 81, 82, 83, 84, 85, 86, 87, 88, 89, 90, 91, 92, 93, 94, 95, 96, 97, 98, 99, 100, 101, 102, 103, 104, 105, 106, 107, 108, 109, 110, 111, 112, 113, 114, 115, 116, 117, 118, 119, 120, 121, 122, 123, 124, 125, 126, 127, 128, 129, 130, 131, 132, 133, 134, 135, 136, 137, 138, 139, 140, 141, 142, 143, 144, 145, 146, 147, 148, 149, 150, 151, 152, 153, 154, 155, 156, 157, 158, 159, 160, 161, 162, 163, 164],
      "AcquisitionTime": ["151229.712500", "151231.722500", "151233.730000", "151235.737500", "151237.745000", "151239.752500", "151241.762500", "151243.770000", "151245.777500", "151247.785000", "151249.795000", "151251.802500", "151253.810000", "151255.817500", "151257.825000", "151259.835000", "151301.842500", "151303.850000", "151305.857500", "151307.865000", "151309.875000", "151311.882500", "151313.890000", "151315.897500", "151317.907500", "151319.915000", "151321.922500", "151323.930000", "151325.937500", "151327.947500", "151329.955000", "151331.962500", "151333.970000", "151335.977500", "151337.987500", "151339.995000", "151342.002500", "151344.010000", "151346.020000", "151348.027500", "151350.035000", "151352.042500", "151354.050000", "151356.060000", "151358.067500", "151400.075000", "151402.082500", "151404.090000", "151406.100000", "151408.107500", "151410.115000", "151412.122500", "151414.132500", "151416.140000", "151418.147500", "151420.155000", "151422.162500", "151424.172500", "151426.180000", "151428.187500", "151430.195000", "151432.202500", "151434.212500", "151436.220000", "151438.227500", "151440.235000", "151442.242500", "151444.252500", "151446.260000", "151448.267500", "151450.275000", "151452.285000", "151454.292500", "151456.300000", "151458.307500", "151500.315000", "151502.325000", "151504.332500", "151506.340000", "151508.347500", "151510.355000", "151512.365000", "151514.372500", "151516.380000", "151518.387500", "151520.397500", "151522.405000", "151524.412500", "151526.420000", "151528.427500", "151530.437500", "151532.445000", "151534.452500", "151536.460000", "151538.467500", "151540.477500", "151542.485000", "151544.492500", "151546.500000", "151548.510000", "151550.517500", "151552.525000", "151554.532500", "151556.540000", "151558.550000", "151600.557500", "151602.565000", "151604.572500", "151606.580000", "151608.590000", "151610.597500", "151612.605000", "151614.612500", "151616.620000", "151618.630000", "151620.637500", "151622.645000", "151624.652500", "151626.662500", "151628.670000", "151630.677500", "151632.685000", "151634.692500", "151636.702500", "151638.710000", "151640.717500", "151642.725000", "151644.732500", "151646.742500", "151648.750000", "151650.757500", "151652.765000", "151654.775000", "151656.782500", "151658.790000", "151700.797500", "151702.805000", "151704.815000", "151706.822500", "151708.830000", "151710.837500", "151712.845000", "151714.855000", "151716.862500", "151718.870000", "151720.877500", "151722.887500", "151724.895000", "151726.902500", "151728.910000", "151730.917500", "151732.927500", "151734.935000", "151736.942500", "151738.950000", "151740.957500", "151742.967500", "151744.975000", "151746.982500", "151748.990000", "151750.997500", "151753.007500", "151755.015000", "151757.022500"],
      "ContentTime": ["151328.468000", "151328.468000", "151328.468000", "151328.468000", "151328.468000", "151328.484000", "151328.484000", "151328.484000", "151328.484000", "151328.484000", "151328.484000", "151328.484000", "151328.484000", "151328.500000", "151328.500000", "151328.500000", "151328.500000", "151328.500000", "151328.500000", "151328.515000", "151328.515000", "151328.515000", "151328.515000", "151328.515000", "151328.515000", "151328.515000", "151328.531000", "151328.531000", "151408.453000", "151408.468000", "151408.468000", "151408.468000", "151408.468000", "151408.468000", "151408.468000", "151408.468000", "151408.468000", "151408.484000", "151408.484000", "151408.484000", "151408.484000", "151408.484000", "151408.500000", "151408.500000", "151408.500000", "151408.500000", "151408.500000", "151408.500000", "151448.453000", "151448.468000", "151448.468000", "151448.468000", "151448.484000", "151448.484000", "151448.484000", "151448.484000", "151448.500000", "151448.500000", "151448.500000", "151448.500000", "151448.500000", "151448.515000", "151448.515000", "151448.515000", "151448.515000", "151448.515000", "151448.515000", "151448.515000", "151528.453000", "151528.468000", "151528.468000", "151528.468000", "151528.468000", "151528.468000", "151528.468000", "151528.468000", "151528.468000", "151528.468000", "151528.484000", "151528.484000", "151528.484000", "151528.484000", "151528.484000", "151528.500000", "151528.500000", "151528.500000", "151528.500000", "151528.500000", "151608.453000", "151608.468000", "151608.468000", "151608.468000", "151608.468000", "151608.468000", "151608.468000", "151608.484000", "151608.484000", "151608.484000", "151608.484000", "151608.484000", "151608.500000", "151608.500000", "151608.500000", "151608.500000", "151608.500000", "151608.500000", "151608.500000", "151608.500000", "151648.453000", "151648.468000", "151648.468000", "151648.468000", "151648.468000", "151648.468000", "151648.468000", "151648.468000", "151648.468000", "151648.484000", "151648.484000", "151648.484000", "151648.484000", "151648.484000", "151648.484000", "151648.484000", "151648.484000", "151648.484000", "151648.500000", "151648.500000", "151728.453000", "151728.468000", "151728.468000", "151728.468000", "151728.468000", "151728.468000", "151728.468000", "151728.484000", "151728.484000", "151728.484000", "151728.484000", "151728.484000", "151728.484000", "151728.484000", "151728.484000", "151728.500000", "151728.500000", "151728.500000", "151728.500000", "151728.515000", "151758.953000", "151758.953000", "151758.953000", "151758.953000", "151758.953000", "151758.953000", "151758.953000", "151758.968000", "151758.968000", "151758.968000", "151758.968000", "151758.968000", "151758.968000", "151758.968000", "151758.968000", "151758.968000"],
      "InstanceCreationTime": ["151328.468000", "151328.468000", "151328.468000", "151328.468000", "151328.468000", "151328.484000", "151328.484000", "151328.484000", "151328.484000", "151328.484000", "151328.484000", "151328.484000", "151328.484000", "151328.500000", "151328.500000", "151328.500000", "151328.500000", "151328.500000", "151328.500000", "151328.515000", "151328.515000", "151328.515000", "151328.515000", "151328.515000", "151328.515000", "151328.515000", "151328.531000", "151328.531000", "151408.453000", "151408.468000", "151408.468000", "151408.468000", "151408.468000", "151408.468000", "151408.468000", "151408.468000", "151408.468000", "151408.484000", "151408.484000", "151408.484000", "151408.484000", "151408.484000", "151408.500000", "151408.500000", "151408.500000", "151408.500000", "151408.500000", "151408.500000", "151448.453000", "151448.468000", "151448.468000", "151448.468000", "151448.484000", "151448.484000", "151448.484000", "151448.484000", "151448.500000", "151448.500000", "151448.500000", "151448.500000", "151448.500000", "151448.515000", "151448.515000", "151448.515000", "151448.515000", "151448.515000", "151448.515000", "151448.515000", "151528.453000", "151528.468000", "151528.468000", "151528.468000", "151528.468000", "151528.468000", "151528.468000", "151528.468000", "151528.468000", "151528.468000", "151528.484000", "151528.484000", "151528.484000", "151528.484000", "151528.484000", "151528.500000", "151528.500000", "151528.500000", "151528.500000", "151528.500000", "151608.453000", "151608.468000", "151608.468000", "151608.468000", "151608.468000", "151608.468000", "151608.468000", "151608.484000", "151608.484000", "151608.484000", "151608.484000", "151608.484000", "151608.500000", "151608.500000", "151608.500000", "151608.500000", "151608.500000", "151608.500000", "151608.500000", "151608.500000", "151648.453000", "151648.468000", "151648.468000", "151648.468000", "151648.468000", "151648.468000", "151648.468000", "151648.468000", "151648.468000", "151648.484000", "151648.484000", "151648.484000", "151648.484000", "151648.484000", "151648.484000", "151648.484000", "151648.484000", "151648.484000", "151648.500000", "151648.500000", "151728.453000", "151728.468000", "151728.468000", "151728.468000", "151728.468000", "151728.468000", "151728.468000", "151728.484000", "151728.484000", "151728.484000", "151728.484000", "151728.484000", "151728.484000", "151728.484000", "151728.484000", "151728.500000", "151728.500000", "151728.500000", "151728.500000", "151728.515000", "151758.953000", "151758.953000", "151758.953000", "151758.953000", "151758.953000", "151758.953000", "151758.953000", "151758.968000", "151758.968000", "151758.968000", "151758.968000", "151758.968000", "151758.968000", "151758.968000", "151758.968000", "151758.968000"],
      "InstanceNumber": [1, 2, 3, 4, 5, 6, 7, 8, 9, 10, 11, 12, 13, 14, 15, 16, 17, 18, 19, 20, 21, 22, 23, 24, 25, 26, 27, 28, 29, 30, 31, 32, 33, 34, 35, 36, 37, 38, 39, 40, 41, 42, 43, 44, 45, 46, 47, 48, 49, 50, 51, 52, 53, 54, 55, 56, 57, 58, 59, 60, 61, 62, 63, 64, 65, 66, 67, 68, 69, 70, 71, 72, 73, 74, 75, 76, 77, 78, 79, 80, 81, 82, 83, 84, 85, 86, 87, 88, 89, 90, 91, 92, 93, 94, 95, 96, 97, 98, 99, 100, 101, 102, 103, 104, 105, 106, 107, 108, 109, 110, 111, 112, 113, 114, 115, 116, 117, 118, 119, 120, 121, 122, 123, 124, 125, 126, 127, 128, 129, 130, 131, 132, 133, 134, 135, 136, 137, 138, 139, 140, 141, 142, 143, 144, 145, 146, 147, 148, 149, 150, 151, 152, 153, 154, 155, 156, 157, 158, 159, 160, 161, 162, 163, 164],
      "LargestImagePixelValue": [2059, 1983, 1942, 1932, 1920, 1932, 1926, 1931, 1940, 1937, 1911, 1926, 1933, 1910, 1909, 1910, 1926, 1918, 1915, 1902, 1892, 1898, 1912, 1870, 2157, 1894, 1892, 1885, 1898, 1911, 1883, 1881, 1886, 1899, 1895, 1877, 1896, 1899, 1909, 1893, 1887, 1903, 1905, 1908, 1885, 1897, 1888, 1897, 1896, 1902, 1896, 1886, 1894, 1882, 1896, 1902, 2174, 1889, 1894, 2127, 1913, 1908, 1913, 1895, 1916, 1919, 1901, 1913, 1904, 1922, 1962, 1917, 2186, 1917, 1924, 1914, 1911, 1940, 1934, 1922, 1921, 1911, 1926, 1928, 1931, 1954, 1920, 1924, 1914, 1943, 1959, 1934, 1922, 1928, 1953, 1934, 1927, 1929, 1944, 1918, 1940, 2077, 1938, 1927, 1933, 1935, 1934, 1943, 1955, 1934, 2008, 1938, 1934, 1925, 1915, 1925, 1939, 1945, 1946, 1934, 1910, 1940, 1950, 1941, 1933, 1929, 1918, 1934, 1929, 1930, 1929, 1940, 1933, 1926, 1925, 1923, 1934, 1940, 1905, 1931, 1938, 1937, 1931, 1920, 1930, 1911, 1942, 1930, 1935, 1925, 1928, 1933, 1915, 1941, 1921, 1912, 1914, 1923, 1919, 1895, 1907, 1912, 1919, 1921],
      "WindowCenter": [760.0, 757.0, 756.0, 756.0, 756.0, 755.0, 755.0, 755.0, 755.0, 755.0, 755.0, 755.0, 756.0, 755.0, 756.0, 755.0, 755.0, 755.0, 756.0, 756.0, 756.0, 756.0, 755.0, 755.0, 756.0, 755.0, 755.0, 755.0, 755.0, 755.0, 755.0, 755.0, 755.0, 756.0, 756.0, 756.0, 756.0, 756.0, 756.0, 756.0, 757.0, 756.0, 756.0, 756.0, 756.0, 756.0, 756.0, 755.0, 756.0, 756.0, 756.0, 756.0, 756.0, 755.0, 756.0, 756.0, 756.0, 755.0, 755.0, 756.0, 755.0, 755.0, 755.0, 755.0, 756.0, 756.0, 756.0, 756.0, 756.0, 755.0, 756.0, 756.0, 756.0, 755.0, 755.0, 756.0, 756.0, 756.0, 756.0, 756.0, 757.0, 756.0, 756.0, 755.0, 756.0, 756.0, 756.0, 756.0, 756.0, 756.0, 756.0, 756.0, 756.0, 756.0, 756.0, 755.0, 755.0, 756.0, 757.0, 757.0, 756.0, 757.0, 756.0, 757.0, 757.0, 756.0, 756.0, 756.0, 756.0, 755.0, 756.0, 757.0, 757.0, 757.0, 756.0, 757.0, 756.0, 756.0, 756.0, 756.0, 755.0, 754.0, 755.0, 755.0, 756.0, 755.0, 756.0, 756.0, 756.0, 755.0, 754.0, 755.0, 754.0, 754.0, 756.0, 756.0, 756.0, 756.0, 756.0, 756.0, 756.0, 756.0, 755.0, 755.0, 755.0, 754.0, 755.0, 755.0, 755.0, 756.0, 756.0, 756.0, 755.0, 755.0, 755.0, 755.0, 755.0, 755.0, 755.0, 755.0, 756.0, 755.0, 756.0, 756.0],
      "WindowWidth": [1673.0, 1665.0, 1662.0, 1660.0, 1660.0, 1658.0, 1658.0, 1656.0, 1657.0, 1657.0, 1659.0, 1659.0, 1661.0, 1658.0, 1660.0, 1659.0, 1659.0, 1659.0, 1662.0, 1662.0, 1661.0, 1660.0, 1658.0, 1659.0, 1661.0, 1657.0, 1657.0, 1658.0, 1658.0, 1659.0, 1658.0, 1659.0, 1658.0, 1661.0, 1659.0, 1660.0, 1660.0, 1661.0, 1661.0, 1660.0, 1662.0, 1660.0, 1660.0, 1661.0, 1661.0, 1660.0, 1660.0, 1658.0, 1660.0, 1660.0, 1662.0, 1660.0, 1660.0, 1658.0, 1660.0, 1661.0, 1663.0, 1658.0, 1659.0, 1661.0, 1659.0, 1659.0, 1659.0, 1659.0, 1661.0, 1660.0, 1660.0, 1660.0, 1660.0, 1658.0, 1660.0, 1661.0, 1662.0, 1659.0, 1659.0, 1661.0, 1660.0, 1661.0, 1661.0, 1660.0, 1663.0, 1661.0, 1660.0, 1658.0, 1660.0, 1660.0, 1660.0, 1662.0, 1662.0, 1661.0, 1662.0, 1662.0, 1662.0, 1661.0, 1661.0, 1658.0, 1659.0, 1662.0, 1664.0, 1663.0, 1662.0, 1664.0, 1662.0, 1662.0, 1663.0, 1660.0, 1661.0, 1661.0, 1661.0, 1658.0, 1662.0, 1662.0, 1663.0, 1664.0, 1661.0, 1662.0, 1662.0, 1661.0, 1660.0, 1659.0, 1657.0, 1656.0, 1658.0, 1659.0, 1660.0, 1659.0, 1661.0, 1661.0, 1659.0, 1657.0, 1655.0, 1657.0, 1655.0, 1656.0, 1661.0, 1661.0, 1661.0, 1660.0, 1660.0, 1660.0, 1660.0, 1660.0, 1658.0, 1657.0, 1658.0, 1656.0, 1658.0, 1659.0, 1659.0, 1660.0, 1661.0, 1659.0, 1658.0, 1658.0, 1657.0, 1657.0, 1658.0, 1657.0, 1658.0, 1657.0, 1660.0, 1658.0, 1660.0, 1660.0]
    },
    "slices": {}
  }
}