{
  "AcquisitionMatrixPE": 64,
  "AcquisitionNumber": 1,
  "AcquisitionTime": "10:45:25.405000",
  "BandwidthPerPixelPhaseEncode": 33.967,
  "BaseResolution": 64,
  "CoilCombinationMethod": "Sum of Squares",
  "CoilString": "C:HEA;HEP",
  "ConversionSoftware": "dcm2niix",
  "ConversionSoftwareVersion": "v1.0.20220720",
  "DerivedVendorReportedEchoSpacing": 0.000460005,
  "DeviceSerialNumber": "35193",
  "DwellTime": 3.1e-06,
  "EchoTime": 0.03,
  "EffectiveEchoSpacing": 0.000460005,
  "FlipAngle": 90,
  "HeudiconvVersion": "1.1.6",
  "ImageOrientationPatientDICOM": [0.999144, 0.0191974, -0.036637, -0.0191846, 0.999816, 0.000703467],
  "ImageOrientationText": "Tra>Sag(-2.1)",
  "ImageType": [
    "ORIGINAL",
    "PRIMARY",
    "M",
    "ND",
    "MOSAIC"
],
  "ImagingFrequency": 123.254,
  "InPlanePhaseEncodingDirectionDICOM": "COL",
  "InstitutionAddress": "Xinjiekouwai Street No 19,Beijing,Haidian District,CN,100875",
  "InstitutionName": "BNU MRI Center",
  "InstitutionalDepartmentName": "Department",
  "MRAcquisitionType": "2D",
  "MagneticFieldStrength": 3,
  "Manufacturer": "Siemens",
  "ManufacturersModelName": "TrioTim",
  "MatrixCoilMode": "SENSE",
  "Modality": "MR",
  "NonlinearGradientCorrection": false,
  "PartialFourier": 1,
  "PatientPosition": "HFS",
  "PercentPhaseFOV": 100,
  "PercentSampling": 100,
  "PhaseEncodingDirection": "j-",
  "PhaseEncodingSteps": 64,
  "PhaseResolution": 1,
  "PixelBandwidth": 2520,
  "ProcedureStepDescription": "BNU_cst_2015^Guo.TaoMei",
  "ProtocolName": "ge_func_3x3x4_164",
  "PulseSequenceDetails": "%SiemensSeq%\\ep2d_bold",
  "ReceiveCoilName": "HeadMatrix",
  "ReconMatrixPE": 64,
  "RepetitionTime": 2,
  "SAR": 0.141231,
  "ScanOptions": "FS",
  "ScanningSequence": "EP",
  "SequenceName": "*epfid2d1_64",
  "SequenceVariant": "SK",
  "SeriesDescription": "ge_func_3x3x4_164",
  "SeriesNumber": 4,
  "ShimSetting": [-4533, -19336, -9808, 1059, -210, -301, 226, 60],
  "SliceThickness": 4,
  "SliceTiming": [0, 1.0325, 0.06, 1.095, 0.12, 1.155, 0.1825, 1.215, 0.2425, 1.2775, 0.3025, 1.3375, 0.365, 1.3975, 0.425, 1.46, 0.485, 1.52, 0.5475, 1.58, 0.6075, 1.6425, 0.6675, 1.7025, 0.73, 1.7625, 0.79, 1.825, 0.85, 1.885, 0.9125, 1.945, 0.9725],
  "SoftwareVersions": "syngo MR B17",
  "SpacingBetweenSlices": 4.6,
  "StationName": "MRC35193",
  "TaskName": "CognitiveControl",
  "TotalReadoutTime": 0.0289803,
  "TxRefAmp": 366.186,
  "dcmmeta_affine": [
    [-3.1223256587982178, -0.05995173007249832, -0.16856105625629425, 109.86749267578125],
    [-0.059992022812366486, 3.1244242191314697, 3.904951029198855e-09, -82.7928237915039],
    [-0.11449048668146133, -0.0021983329206705093, 4.59691047668457, -59.02354431152344],
    [0.0, 0.0, 0.0, 1.0]
],
  "dcmmeta_reorient_transform": [
    [0.0, -1.0, 0.0, 63.0],
    [1.0, 0.0, 0.0, 0.0],
    [0.0, 0.0, 1.0, 0.0],
    [0.0, 0.0, 0.0, 1.0]
],
  "dcmmeta_shape": [64, 64, 33, 164],
  "dcmmeta_slice_dim": 2,
  "dcmmeta_version": 0.6,
  "global": {
    "const": {
      "AcquisitionMatrix": [64, 0, 0, 64],
      "AngioFlag": "N",
      "BitsAllocated": 16,
      "BitsStored": 12,
      "Columns": 384,
      "EchoNumbers": 1,
      "EchoTime": 30.0,
      "EchoTrainLength": 1,
      "FlipAngle": 90.0,
      "HighBit": 11,
      "ImageOrientationPatient": [0.99914422954761, 0.0191974472962, -0.0366369564649, -0.0191845541395, 0.99981571202763, 0.00070346652958],
      "ImagePositionPatient": [-596.07037254374, -623.55247357434, -41.195296206013],
      "ImageType": [
        "ORIGINAL",
        "PRIMARY",
        "M",
        "ND",
        "MOSAIC"
],
      "ImagedNucleus": "1H",
      "ImagingFrequency": 123.253662,
      "InPlanePhaseEncodingDirection": "COL",
      "MRAcquisitionType": "2D",
      "MagneticFieldStrength": 3.0,
      "Manufacturer": "SIEMENS",
      "ManufacturerModelName": "TrioTim",
      "Modality": "MR",
      "NumberOfAverages": 1.0,
      "NumberOfPhaseEncodingSteps": 64,
      "PercentPhaseFieldOfView": 100.0,
      "PercentSampling": 100.0,
      "PerformedProcedureStepStartTime": "102823.640000",
      "PhotometricInterpretation": "MONOCHROME2",
      "PixelBandwidth": 2520.0,
      "PixelRepresentation": 0,
      "PixelSpacing": [3.125, 3.125],
      "ProtocolName": "ge_func_3x3x4_164",
      "RepetitionTime": 2000.0,
      "Rows": 384,
      "SAR": 0.14123116680224,
      "SamplesPerPixel": 1,
      "ScanOptions": "FS",
      "ScanningSequence": "EP",
      "SequenceName": "*epfid2d1_64",
      "SequenceVariant": "SK",
      "SeriesDescription": "ge_func_3x3x4_164",
      "SeriesNumber": 4,
      "SeriesTime": "104614.093000",
      "SliceLocation": -63.009858217132,
      "SliceThickness": 4.0,
      "SmallestImagePixelValue": 0,
      "SoftwareVersions": "syngo MR B17",
      "SpacingBetweenSlices": 4.5999999843834,
      "SpecificCharacterSet": "ISO_IR 100",
      "StudyID": "1",
      "StudyTime": "102822.875000",
      "TransmitCoilName": "Body",
      "VariableFlipAngleFlag": "N",
      "WindowCenterWidthExplanation": "Algo1",
      "dBdt": 0.0},
    "slices": {}
  },
  "time": {
    "samples": {
      "AcquisitionNumber": [1, 2, 3, 4, 5, 6, 7, 8, 9, 10, 11, 12, 13, 14, 15, 16, 17, 18, 19, 20, 21, 22, 23, 24, 25, 26, 27, 28, 29, 30, 31, 32, 33, 34, 35, 36, 37, 38, 39, 40, 41, 42, 43, 44, 45, 46, 47, 48, 49, 50, 51, 52, 53, 54, 55, 56, 57, 58, 59, 60, 61, 62, 63, 64, 65, 66, 67, 68, 69, 70, 71, 72, 73, 74, 75, 76, 77, 78, 79, 80, 81, 82, 83, 84, 85, 86, 87, 88, 89, 90, 91, 92, 93, 94, 95, 96, 97, 98, 99, 100, 101, 102, 103, 104, 105, 106, 107, 108, 109, 110, 111, 112, 113, 114, 115, 116, 117, 118, 119, 120, 121, 122, 123, 124, 125, 126, 127, 128, 129, 130, 131, 132, 133, 134, 135, 136, 137, 138, 139, 140, 141, 142, 143, 144, 145, 146, 147, 148, 149, 150, 151, 152, 153, 154, 155, 156, 157, 158, 159, 160, 161, 162, 163, 164],
      "AcquisitionTime": ["104525.405000", "104527.412500", "104529.420000", "104531.427500", "104533.435000", "104535.445000", "104537.452500", "104539.460000", "104541.467500", "104543.477500", "104545.485000", "104547.492500", "104549.500000", "104551.507500", "104553.517500", "104555.525000", "104557.532500", "104559.540000", "104601.547500", "104603.557500", "104605.565000", "104607.572500", "104609.580000", "104611.587500", "104613.597500", "104615.605000", "104617.612500", "104619.620000", "104621.630000", "104623.637500", "104625.645000", "104627.652500", "104629.660000", "104631.670000", "104633.677500", "104635.685000", "104637.692500", "104639.700000", "104641.710000", "104643.717500", "104645.725000", "104647.732500", "104649.742500", "104651.750000", "104653.757500", "104655.765000", "104657.772500", "104659.782500", "104701.790000", "104703.797500", "104705.805000", "104707.812500", "104709.822500", "104711.830000", "104713.837500", "104715.845000", "104717.855000", "104719.862500", "104721.870000", "104723.877500", "104725.885000", "104727.895000", "104729.902500", "104731.910000", "104733.917500", "104735.925000", "104737.935000", "104739.942500", "104741.950000", "104743.957500", "104745.967500", "104747.975000", "104749.982500", "104751.990000", "104753.997500", "104756.007500", "104758.015000", "104800.022500", "104802.030000", "104804.037500", "104806.047500", "104808.055000", "104810.062500", "104812.070000", "104814.077500", "104816.087500", "104818.095000", "104820.102500", "104822.110000", "104824.120000", "104826.127500", "104828.135000", "104830.142500", "104832.150000", "104834.160000", "104836.167500", "104838.175000", "104840.182500", "104842.190000", "104844.200000", "104846.207500", "104848.215000", "104850.222500", "104852.232500", "104854.240000", "104856.247500", "104858.255000", "104900.262500", "104902.272500", "104904.280000", "104906.287500", "104908.295000", "104910.302500", "104912.312500", "104914.320000", "104916.327500", "104918.335000", "104920.345000", "104922.352500", "104924.360000", "104926.367500", "104928.375000", "104930.385000", "104932.392500", "104934.400000", "104936.407500", "104938.415000", "104940.425000", "104942.432500", "104944.440000", "104946.447500", "104948.455000", "104950.465000", "104952.472500", "104954.480000", "104956.487500", "104958.497500", "105000.505000", "105002.512500", "105004.520000", "105006.527500", "105008.537500", "105010.545000", "105012.552500", "105014.560000", "105016.567500", "105018.577500", "105020.585000", "105022.592500", "105024.600000", "105026.610000", "105028.617500", "105030.625000", "105032.632500", "105034.640000", "105036.650000", "105038.657500", "105040.665000", "105042.672500", "105044.680000", "105046.690000", "105048.697500", "105050.705000", "105052.712500"],
      "ContentTime": ["104614.109000", "104614.109000", "104614.109000", "104614.109000", "104614.109000", "104614.109000", "104614.125000", "104614.125000", "104614.125000", "104614.125000", "104614.140000", "104614.140000", "104614.140000", "104614.140000", "104614.140000", "104614.140000", "104614.140000", "104614.140000", "104614.156000", "104614.156000", "104614.156000", "104614.156000", "104614.156000", "104654.093000", "104654.109000", "104654.109000", "104654.109000", "104654.109000", "104654.109000", "104654.125000", "104654.125000", "104654.125000", "104654.125000", "104654.125000", "104654.140000", "104654.140000", "104654.140000", "104654.140000", "104654.140000", "104654.140000", "104654.140000", "104654.140000", "104654.156000", "104734.093000", "104734.093000", "104734.109000", "104734.109000", "104734.109000", "104734.109000", "104734.109000", "104734.109000", "104734.109000", "104734.125000", "104734.125000", "104734.125000", "104734.125000", "104734.125000", "104734.125000", "104734.140000", "104734.140000", "104734.140000", "104734.140000", "104734.140000", "104754.093000", "104754.109000", "104754.109000", "104754.109000", "104754.109000", "104754.109000", "104754.125000", "104754.125000", "104754.125000", "104754.140000", "104834.093000", "104834.093000", "104834.109000", "104834.109000", "104834.109000", "104834.125000", "104834.125000", "104834.125000", "104834.125000", "104834.125000", "104834.125000", "104834.140000", "104834.140000", "104834.140000", "104834.140000", "104834.140000", "104834.140000", "104834.140000", "104834.140000", "104834.156000", "104914.093000", "104914.093000", "104914.109000", "104914.109000", "104914.109000", "104914.109000", "104914.109000", "104914.109000", "104914.109000", "104914.125000", "104914.125000", "104914.125000", "104914.125000", "104914.125000", "104914.125000", "104914.125000", "104914.125000", "104914.125000", "104914.140000", "104914.140000", "104954.093000", "104954.093000", "104954.109000", "104954.109000", "104954.109000", "104954.109000", "104954.109000", "104954.109000", "104954.109000", "104954.109000", "104954.125000", "104954.125000", "104954.125000", "104954.125000", "104954.125000", "104954.125000", "104954.125000", "104954.125000", "104954.140000", "104954.140000", "105034.093000", "105034.109000", "105034.109000", "105034.109000", "105034.109000", "105034.109000", "105034.109000", "105034.109000", "105034.109000", "105034.125000", "105034.125000", "105034.125000", "105034.125000", "105034.125000", "105034.125000", "105034.125000", "105034.140000", "105034.140000", "105034.140000", "105034.140000", "105054.750000", "105054.750000", "105054.750000", "105054.750000", "105054.750000", "105054.750000", "105054.750000", "105054.750000", "105054.765000", "105054.765000", "105054.765000"],
      "InstanceCreationTime": ["104614.109000", "104614.109000", "104614.109000", "104614.109000", "104614.109000", "104614.109000", "104614.125000", "104614.125000", "104614.125000", "104614.125000", "104614.140000", "104614.140000", "104614.140000", "104614.140000", "104614.140000", "104614.140000", "104614.140000", "104614.140000", "104614.156000", "104614.156000", "104614.156000", "104614.156000", "104614.156000", "104654.093000", "104654.109000", "104654.109000", "104654.109000", "104654.109000", "104654.109000", "104654.125000", "104654.125000", "104654.125000", "104654.125000", "104654.125000", "104654.140000", "104654.140000", "104654.140000", "104654.140000", "104654.140000", "104654.140000", "104654.140000", "104654.140000", "104654.156000", "104734.093000", "104734.093000", "104734.109000", "104734.109000", "104734.109000", "104734.109000", "104734.109000", "104734.109000", "104734.109000", "104734.125000", "104734.125000", "104734.125000", "104734.125000", "104734.125000", "104734.125000", "104734.140000", "104734.140000", "104734.140000", "104734.140000", "104734.140000", "104754.093000", "104754.109000", "104754.109000", "104754.109000", "104754.109000", "104754.109000", "104754.125000", "104754.125000", "104754.125000", "104754.140000", "104834.093000", "104834.093000", "104834.109000", "104834.109000", "104834.109000", "104834.125000", "104834.125000", "104834.125000", "104834.125000", "104834.125000", "104834.125000", "104834.140000", "104834.140000", "104834.140000", "104834.140000", "104834.140000", "104834.140000", "104834.140000", "104834.140000", "104834.156000", "104914.093000", "104914.093000", "104914.109000", "104914.109000", "104914.109000", "104914.109000", "104914.109000", "104914.109000", "104914.109000", "104914.125000", "104914.125000", "104914.125000", "104914.125000", "104914.125000", "104914.125000", "104914.125000", "104914.125000", "104914.125000", "104914.140000", "104914.140000", "104954.093000", "104954.093000", "104954.109000", "104954.109000", "104954.109000", "104954.109000", "104954.109000", "104954.109000", "104954.109000", "104954.109000", "104954.125000", "104954.125000", "104954.125000", "104954.125000", "104954.125000", "104954.125000", "104954.125000", "104954.125000", "104954.140000", "104954.140000", "105034.093000", "105034.109000", "105034.109000", "105034.109000", "105034.109000", "105034.109000", "105034.109000", "105034.109000", "105034.109000", "105034.125000", "105034.125000", "105034.125000", "105034.125000", "105034.125000", "105034.125000", "105034.125000", "105034.140000", "105034.140000", "105034.140000", "105034.140000", "105054.750000", "105054.750000", "105054.750000", "105054.750000", "105054.750000", "105054.750000", "105054.750000", "105054.750000", "105054.765000", "105054.765000", "105054.765000"],
      "InstanceNumber": [1, 2, 3, 4, 5, 6, 7, 8, 9, 10, 11, 12, 13, 14, 15, 16, 17, 18, 19, 20, 21, 22, 23, 24, 25, 26, 27, 28, 29, 30, 31, 32, 33, 34, 35, 36, 37, 38, 39, 40, 41, 42, 43, 44, 45, 46, 47, 48, 49, 50, 51, 52, 53, 54, 55, 56, 57, 58, 59, 60, 61, 62, 63, 64, 65, 66, 67, 68, 69, 70, 71, 72, 73, 74, 75, 76, 77, 78, 79, 80, 81, 82, 83, 84, 85, 86, 87, 88, 89, 90, 91, 92, 93, 94, 95, 96, 97, 98, 99, 100, 101, 102, 103, 104, 105, 106, 107, 108, 109, 110, 111, 112, 113, 114, 115, 116, 117, 118, 119, 120, 121, 122, 123, 124, 125, 126, 127, 128, 129, 130, 131, 132, 133, 134, 135, 136, 137, 138, 139, 140, 141, 142, 143, 144, 145, 146, 147, 148, 149, 150, 151, 152, 153, 154, 155, 156, 157, 158, 159, 160, 161, 162, 163, 164],
      "LargestImagePixelValue": [2104, 2035, 2008, 2000, 1987, 2009, 2005, 2001, 2052, 2029, 2028, 2030, 2000, 2018, 2014, 2030, 1996, 2001, 2002, 2013, 2049, 2014, 1988, 2014, 2014, 2011, 2008, 2010, 2008, 2023, 2016, 2017, 2007, 2013, 2026, 2023, 2014, 2024, 2017, 2038, 2019, 2000, 1998, 2017, 2025, 2018, 2024, 2019, 2028, 2012, 2019, 2020, 1996, 2001, 2001, 2005, 2004, 2003, 2021, 2011, 2019, 2018, 2024, 2011, 2029, 2017, 2005, 2002, 2006, 2004, 2015, 2028, 2013, 2019, 2006, 2023, 2000, 1995, 1985, 1988, 1993, 2002, 1983, 1995, 1996, 2015, 2001, 2006, 1996, 1976, 2000, 1992, 2016, 2018, 1999, 2004, 1990, 2007, 2001, 2002, 2008, 2007, 1980, 1989, 2009, 2002, 2013, 2001, 2021, 1998, 2001, 2024, 2021, 2022, 2028, 1993, 2008, 1988, 1998, 1996, 1979, 2026, 2006, 2016, 2009, 2023, 2007, 2016, 2134, 2017, 2023, 2002, 2003, 2001, 2002, 2022, 2002, 2035, 2010, 2011, 2026, 2007, 1995, 2008, 1994, 1993, 1995, 2015, 2018, 2016, 2013, 1980, 1981, 2018, 2017, 1998, 2021, 2006, 2001, 1997, 2003, 2015, 2018, 1993],
      "WindowCenter": [752.0, 750.0, 749.0, 748.0, 748.0, 748.0, 748.0, 747.0, 746.0, 746.0, 746.0, 748.0, 747.0, 748.0, 748.0, 748.0, 749.0, 749.0, 749.0, 749.0, 749.0, 750.0, 750.0, 750.0, 750.0, 750.0, 750.0, 750.0, 749.0, 749.0, 749.0, 749.0, 750.0, 749.0, 749.0, 750.0, 750.0, 750.0, 749.0, 749.0, 749.0, 749.0, 749.0, 749.0, 749.0, 749.0, 750.0, 749.0, 750.0, 749.0, 749.0, 749.0, 749.0, 750.0, 750.0, 750.0, 749.0, 749.0, 749.0, 749.0, 750.0, 750.0, 749.0, 749.0, 749.0, 750.0, 751.0, 750.0, 749.0, 749.0, 749.0, 748.0, 749.0, 749.0, 750.0, 750.0, 750.0, 751.0, 751.0, 751.0, 751.0, 751.0, 752.0, 751.0, 751.0, 751.0, 751.0, 751.0, 752.0, 751.0, 751.0, 751.0, 750.0, 751.0, 751.0, 751.0, 751.0, 751.0, 750.0, 750.0, 750.0, 750.0, 751.0, 751.0, 751.0, 750.0, 750.0, 751.0, 751.0, 751.0, 751.0, 750.0, 750.0, 750.0, 751.0, 751.0, 751.0, 751.0, 751.0, 752.0, 751.0, 751.0, 751.0, 751.0, 751.0, 751.0, 751.0, 750.0, 751.0, 750.0, 751.0, 751.0, 751.0, 751.0, 751.0, 751.0, 750.0, 750.0, 751.0, 750.0, 750.0, 752.0, 752.0, 752.0, 752.0, 751.0, 751.0, 750.0, 750.0, 751.0, 752.0, 752.0, 752.0, 751.0, 750.0, 750.0, 750.0, 750.0, 751.0, 751.0, 750.0, 750.0, 751.0, 750.0],
      "WindowWidth": [1631.0, 1626.0, 1622.0, 1619.0, 1619.0, 1619.0, 1619.0, 1616.0, 1614.0, 1613.0, 1614.0, 1618.0, 1617.0, 1620.0, 1620.0, 1620.0, 1621.0, 1622.0, 1622.0, 1621.0, 1622.0, 1625.0, 1625.0, 1625.0, 1624.0, 1623.0, 1624.0, 1623.0, 1623.0, 1623.0, 1622.0, 1623.0, 1624.0, 1622.0, 1622.0, 1624.0, 1624.0, 1623.0, 1623.0, 1622.0, 1623.0, 1623.0, 1623.0, 1623.0, 1622.0, 1621.0, 1624.0, 1623.0, 1623.0, 1622.0, 1621.0, 1622.0, 1622.0, 1623.0, 1624.0, 1623.0, 1622.0, 1622.0, 1622.0, 1622.0, 1623.0, 1624.0, 1622.0, 1623.0, 1622.0, 1624.0, 1627.0, 1623.0, 1621.0, 1621.0, 1621.0, 1620.0, 1622.0, 1622.0, 1623.0, 1624.0, 1623.0, 1626.0, 1625.0, 1627.0, 1627.0, 1627.0, 1628.0, 1626.0, 1626.0, 1625.0, 1625.0, 1625.0, 1628.0, 1627.0, 1626.0, 1626.0, 1624.0, 1625.0, 1626.0, 1625.0, 1625.0, 1624.0, 1624.0, 1624.0, 1623.0, 1623.0, 1625.0, 1626.0, 1624.0, 1623.0, 1623.0, 1625.0, 1626.0, 1626.0, 1625.0, 1624.0, 1623.0, 1624.0, 1625.0, 1625.0, 1624.0, 1624.0, 1626.0, 1627.0, 1626.0, 1626.0, 1626.0, 1625.0, 1626.0, 1625.0, 1624.0, 1623.0, 1625.0, 1623.0, 1626.0, 1626.0, 1625.0, 1625.0, 1625.0, 1625.0, 1624.0, 1624.0, 1624.0, 1623.0, 1624.0, 1628.0, 1628.0, 1628.0, 1628.0, 1626.0, 1624.0, 1622.0, 1622.0, 1626.0, 1628.0, 1628.0, 1627.0, 1626.0, 1624.0, 1623.0, 1623.0, 1623.0, 1625.0, 1625.0, 1623.0, 1623.0, 1625.0, 1624.0]
    },
    "slices": {}
  }
}