{
  "AcquisitionMatrixPE": 64,
  "AcquisitionNumber": 1,
  "AcquisitionTime": "10:51:44.330000",
  "BandwidthPerPixelPhaseEncode": 33.967,
  "BaseResolution": 64,
  "CoilCombinationMethod": "Sum of Squares",
  "CoilString": "C:HEA;HEP",
  "ConversionSoftware": "dcm2niix",
  "ConversionSoftwareVersion": "v1.0.20220720",
  "DerivedVendorReportedEchoSpacing": 0.000460005,
  "DeviceSerialNumber": "35193",
  "DwellTime": 3.1e-06,
  "EchoTime": 0.03,
  "EffectiveEchoSpacing": 0.000460005,
  "FlipAngle": 90,
  "HeudiconvVersion": "1.1.6",
  "ImageOrientationPatientDICOM": [0.999144, 0.0191974, -0.036637, -0.0191846, 0.999816, 0.000703467],
  "ImageOrientationText": "Tra>Sag(-2.1)",
  "ImageType": [
    "ORIGINAL",
    "PRIMARY",
    "M",
    "ND",
    "MOSAIC"
],
  "ImagingFrequency": 123.254,
  "InPlanePhaseEncodingDirectionDICOM": "COL",
  "InstitutionAddress": "Xinjiekouwai Street No 19,Beijing,Haidian District,CN,100875",
  "InstitutionName": "BNU MRI Center",
  "InstitutionalDepartmentName": "Department",
  "MRAcquisitionType": "2D",
  "MagneticFieldStrength": 3,
  "Manufacturer": "Siemens",
  "ManufacturersModelName": "TrioTim",
  "MatrixCoilMode": "SENSE",
  "Modality": "MR",
  "NonlinearGradientCorrection": false,
  "PartialFourier": 1,
  "PatientPosition": "HFS",
  "PercentPhaseFOV": 100,
  "PercentSampling": 100,
  "PhaseEncodingDirection": "j-",
  "PhaseEncodingSteps": 64,
  "PhaseResolution": 1,
  "PixelBandwidth": 2520,
  "ProcedureStepDescription": "BNU_cst_2015^Guo.TaoMei",
  "ProtocolName": "ge_func_3x3x4_164",
  "PulseSequenceDetails": "%SiemensSeq%\\ep2d_bold",
  "ReceiveCoilName": "HeadMatrix",
  "ReconMatrixPE": 64,
  "RepetitionTime": 2,
  "SAR": 0.141231,
  "ScanOptions": "FS",
  "ScanningSequence": "EP",
  "SequenceName": "*epfid2d1_64",
  "SequenceVariant": "SK",
  "SeriesDescription": "ge_func_3x3x4_164",
  "SeriesNumber": 5,
  "ShimSetting": [-4533, -19336, -9808, 1059, -210, -301, 226, 60],
  "SliceThickness": 4,
  "SliceTiming": [0, 1.035, 0.0625, 1.095, 0.1225, 1.1575, 0.1825, 1.2175, 0.245, 1.2775, 0.305, 1.34, 0.365, 1.4, 0.4275, 1.46, 0.4875, 1.5225, 0.5475, 1.5825, 0.61, 1.6425, 0.67, 1.705, 0.73, 1.765, 0.7925, 1.825, 0.8525, 1.8875, 0.9125, 1.9475, 0.975],
  "SoftwareVersions": "syngo MR B17",
  "SpacingBetweenSlices": 4.6,
  "StationName": "MRC35193",
  "TaskName": "CognitiveControl",
  "TotalReadoutTime": 0.0289803,
  "TxRefAmp": 366.186,
  "dcmmeta_affine": [
    [-3.1223256587982178, -0.05995173007249832, -0.16856105625629425, 109.86749267578125],
    [-0.059992022812366486, 3.1244242191314697, 3.904951029198855e-09, -82.7928237915039],
    [-0.11449048668146133, -0.0021983329206705093, 4.59691047668457, -59.02354431152344],
    [0.0, 0.0, 0.0, 1.0]
],
  "dcmmeta_reorient_transform": [
    [0.0, -1.0, 0.0, 63.0],
    [1.0, 0.0, 0.0, 0.0],
    [0.0, 0.0, 1.0, 0.0],
    [0.0, 0.0, 0.0, 1.0]
],
  "dcmmeta_shape": [64, 64, 33, 164],
  "dcmmeta_slice_dim": 2,
  "dcmmeta_version": 0.6,
  "global": {
    "const": {
      "AcquisitionMatrix": [64, 0, 0, 64],
      "AngioFlag": "N",
      "BitsAllocated": 16,
      "BitsStored": 12,
      "Columns": 384,
      "EchoNumbers": 1,
      "EchoTime": 30.0,
      "EchoTrainLength": 1,
      "FlipAngle": 90.0,
      "HighBit": 11,
      "ImageOrientationPatient": [0.99914422954761, 0.0191974472962, -0.0366369564649, -0.0191845541395, 0.99981571202763, 0.00070346652958],
      "ImagePositionPatient": [-596.07037254374, -623.55247357434, -41.195296206013],
      "ImageType": [
        "ORIGINAL",
        "PRIMARY",
        "M",
        "ND",
        "MOSAIC"
],
      "ImagedNucleus": "1H",
      "ImagingFrequency": 123.253666,
      "InPlanePhaseEncodingDirection": "COL",
      "MRAcquisitionType": "2D",
      "MagneticFieldStrength": 3.0,
      "Manufacturer": "SIEMENS",
      "ManufacturerModelName": "TrioTim",
      "Modality": "MR",
      "NumberOfAverages": 1.0,
      "NumberOfPhaseEncodingSteps": 64,
      "PercentPhaseFieldOfView": 100.0,
      "PercentSampling": 100.0,
      "PerformedProcedureStepStartTime": "102823.640000",
      "PhotometricInterpretation": "MONOCHROME2",
      "PixelBandwidth": 2520.0,
      "PixelRepresentation": 0,
      "PixelSpacing": [3.125, 3.125],
      "ProtocolName": "ge_func_3x3x4_164",
      "RepetitionTime": 2000.0,
      "Rows": 384,
      "SAR": 0.14123116680224,
      "SamplesPerPixel": 1,
      "ScanOptions": "FS",
      "ScanningSequence": "EP",
      "SequenceName": "*epfid2d1_64",
      "SequenceVariant": "SK",
      "SeriesDescription": "ge_func_3x3x4_164",
      "SeriesNumber": 5,
      "SeriesTime": "105228.468000",
      "SliceLocation": -63.009858217132,
      "SliceThickness": 4.0,
      "SmallestImagePixelValue": 0,
      "SoftwareVersions": "syngo MR B17",
      "SpacingBetweenSlices": 4.5999999843834,
      "SpecificCharacterSet": "ISO_IR 100",
      "StudyID": "1",
      "StudyTime": "102822.875000",
      "TransmitCoilName": "Body",
      "VariableFlipAngleFlag": "N",
      "WindowCenterWidthExplanation": "Algo1",
      "dBdt": 0.0},
    "slices": {}
  },
  "time": {
    "samples": {
      "AcquisitionNumber": [1, 2, 3, 4, 5, 6, 7, 8, 9, 10, 11, 12, 13, 14, 15, 16, 17, 18, 19, 20, 21, 22, 23, 24, 25, 26, 27, 28, 29, 30, 31, 32, 33, 34, 35, 36, 37, 38, 39, 40, 41, 42, 43, 44, 45, 46, 47, 48, 49, 50, 51, 52, 53, 54, 55, 56, 57, 58, 59, 60, 61, 62, 63, 64, 65, 66, 67, 68, 69, 70, 71, 72, 73, 74, 75, 76, 77, 78, 79, 80, 81, 82, 83, 84, 85, 86, 87, 88, 89, 90, 91, 92, 93, 94, 95, 96, 97, 98, 99, 100, 101, 102, 103, 104, 105, 106, 107, 108, 109, 110, 111, 112, 113, 114, 115, 116, 117, 118, 119, 120, 121, 122, 123, 124, 125, 126, 127, 128, 129, 130, 131, 132, 133, 134, 135, 136, 137, 138, 139, 140, 141, 142, 143, 144, 145, 146, 147, 148, 149, 150, 151, 152, 153, 154, 155, 156, 157, 158, 159, 160, 161, 162, 163, 164],
      "AcquisitionTime": ["105144.330000", "105146.340000", "105148.347500", "105150.355000", "105152.362500", "105154.370000", "105156.380000", "105158.387500", "105200.395000", "105202.402500", "105204.410000", "105206.420000", "105208.427500", "105210.435000", "105212.442500", "105214.452500", "105216.460000", "105218.467500", "105220.475000", "105222.482500", "105224.492500", "105226.500000", "105228.507500", "105230.515000", "105232.522500", "105234.532500", "105236.540000", "105238.547500", "105240.555000", "105242.562500", "105244.572500", "105246.580000", "105248.587500", "105250.595000", "105252.605000", "105254.612500", "105256.620000", "105258.627500", "105300.635000", "105302.645000", "105304.652500", "105306.660000", "105308.667500", "105310.675000", "105312.685000", "105314.692500", "105316.700000", "105318.707500", "105320.717500", "105322.725000", "105324.732500", "105326.740000", "105328.747500", "105330.757500", "105332.765000", "105334.772500", "105336.780000", "105338.787500", "105340.797500", "105342.805000", "105344.812500", "105346.820000", "105348.830000", "105350.837500", "105352.845000", "105354.852500", "105356.860000", "105358.870000", "105400.877500", "105402.885000", "105404.892500", "105406.900000", "105408.910000", "105410.917500", "105412.925000", "105414.932500", "105416.942500", "105418.950000", "105420.957500", "105422.965000", "105424.972500", "105426.982500", "105428.990000", "105430.997500", "105433.005000", "105435.012500", "105437.022500", "105439.030000", "105441.037500", "105443.045000", "105445.052500", "105447.062500", "105449.070000", "105451.077500", "105453.085000", "105455.095000", "105457.102500", "105459.110000", "105501.117500", "105503.125000", "105505.135000", "105507.142500", "105509.150000", "105511.157500", "105513.165000", "105515.175000", "105517.182500", "105519.190000", "105521.197500", "105523.207500", "105525.215000", "105527.222500", "105529.230000", "105531.237500", "105533.247500", "105535.255000", "105537.262500", "105539.270000", "105541.277500", "105543.287500", "105545.295000", "105547.302500", "105549.310000", "105551.320000", "105553.327500", "105555.335000", "105557.342500", "105559.350000", "105601.360000", "105603.367500", "105605.375000", "105607.382500", "105609.390000", "105611.400000", "105613.407500", "105615.415000", "105617.422500", "105619.430000", "105621.440000", "105623.447500", "105625.455000", "105627.462500", "105629.472500", "105631.480000", "105633.487500", "105635.495000", "105637.502500", "105639.512500", "105641.520000", "105643.527500", "105645.535000", "105647.542500", "105649.552500", "105651.560000", "105653.567500", "105655.575000", "105657.585000", "105659.592500", "105701.600000", "105703.607500", "105705.615000", "105707.625000", "105709.632500", "105711.640000"],
      "ContentTime": ["105228.484000", "105228.484000", "105228.484000", "105228.484000", "105228.484000", "105228.500000", "105228.500000", "105228.500000", "105228.500000", "105228.515000", "105228.515000", "105228.515000", "105228.515000", "105228.515000", "105228.515000", "105228.515000", "105228.515000", "105228.531000", "105228.531000", "105228.531000", "105228.531000", "105308.468000", "105308.484000", "105308.484000", "105308.484000", "105308.484000", "105308.484000", "105308.484000", "105308.484000", "105308.484000", "105308.500000", "105308.500000", "105308.500000", "105308.500000", "105308.500000", "105308.500000", "105308.500000", "105308.515000", "105308.515000", "105308.515000", "105308.515000", "105348.468000", "105348.468000", "105348.484000", "105348.484000", "105348.484000", "105348.484000", "105348.484000", "105348.484000", "105348.484000", "105348.500000", "105348.500000", "105348.500000", "105348.500000", "105348.500000", "105348.500000", "105348.500000", "105348.515000", "105348.515000", "105348.515000", "105348.515000", "105428.468000", "105428.468000", "105428.484000", "105428.484000", "105428.484000", "105428.484000", "105428.484000", "105428.500000", "105428.500000", "105428.500000", "105428.500000", "105428.500000", "105428.515000", "105428.515000", "105428.515000", "105428.515000", "105428.515000", "105428.515000", "105428.515000", "105428.531000", "105508.468000", "105508.484000", "105508.484000", "105508.484000", "105508.484000", "105508.500000", "105508.500000", "105508.500000", "105508.500000", "105508.515000", "105508.515000", "105508.515000", "105508.515000", "105508.515000", "105508.531000", "105508.531000", "105508.531000", "105508.531000", "105508.531000", "105508.531000", "105548.468000", "105548.484000", "105548.484000", "105548.484000", "105548.484000", "105548.484000", "105548.484000", "105548.484000", "105548.484000", "105548.500000", "105548.500000", "105548.500000", "105548.500000", "105548.500000", "105548.500000", "105548.500000", "105548.500000", "105548.515000", "105548.515000", "105548.515000", "105628.468000", "105628.484000", "105628.484000", "105628.484000", "105628.484000", "105628.484000", "105628.500000", "105628.500000", "105628.500000", "105628.500000", "105628.500000", "105628.500000", "105628.500000", "105628.500000", "105628.515000", "105628.515000", "105628.515000", "105628.515000", "105628.515000", "105628.515000", "105708.468000", "105708.484000", "105708.484000", "105708.484000", "105708.484000", "105708.484000", "105708.500000", "105708.500000", "105708.500000", "105708.500000", "105708.500000", "105708.500000", "105708.500000", "105708.500000", "105708.515000", "105708.515000", "105708.515000", "105708.515000", "105708.515000", "105708.515000", "105713.625000", "105713.640000", "105713.640000"],
      "InstanceCreationTime": ["105228.484000", "105228.484000", "105228.484000", "105228.484000", "105228.484000", "105228.500000", "105228.500000", "105228.500000", "105228.500000", "105228.515000", "105228.515000", "105228.515000", "105228.515000", "105228.515000", "105228.515000", "105228.515000", "105228.515000", "105228.531000", "105228.531000", "105228.531000", "105228.531000", "105308.468000", "105308.484000", "105308.484000", "105308.484000", "105308.484000", "105308.484000", "105308.484000", "105308.484000", "105308.484000", "105308.500000", "105308.500000", "105308.500000", "105308.500000", "105308.500000", "105308.500000", "105308.500000", "105308.515000", "105308.515000", "105308.515000", "105308.515000", "105348.468000", "105348.468000", "105348.484000", "105348.484000", "105348.484000", "105348.484000", "105348.484000", "105348.484000", "105348.484000", "105348.500000", "105348.500000", "105348.500000", "105348.500000", "105348.500000", "105348.500000", "105348.500000", "105348.515000", "105348.515000", "105348.515000", "105348.515000", "105428.468000", "105428.468000", "105428.484000", "105428.484000", "105428.484000", "105428.484000", "105428.484000", "105428.500000", "105428.500000", "105428.500000", "105428.500000", "105428.500000", "105428.515000", "105428.515000", "105428.515000", "105428.515000", "105428.515000", "105428.515000", "105428.515000", "105428.531000", "105508.468000", "105508.484000", "105508.484000", "105508.484000", "105508.484000", "105508.500000", "105508.500000", "105508.500000", "105508.500000", "105508.515000", "105508.515000", "105508.515000", "105508.515000", "105508.515000", "105508.531000", "105508.531000", "105508.531000", "105508.531000", "105508.531000", "105508.531000", "105548.468000", "105548.484000", "105548.484000", "105548.484000", "105548.484000", "105548.484000", "105548.484000", "105548.484000", "105548.484000", "105548.500000", "105548.500000", "105548.500000", "105548.500000", "105548.500000", "105548.500000", "105548.500000", "105548.500000", "105548.515000", "105548.515000", "105548.515000", "105628.468000", "105628.484000", "105628.484000", "105628.484000", "105628.484000", "105628.484000", "105628.500000", "105628.500000", "105628.500000", "105628.500000", "105628.500000", "105628.500000", "105628.500000", "105628.500000", "105628.515000", "105628.515000", "105628.515000", "105628.515000", "105628.515000", "105628.515000", "105708.468000", "105708.484000", "105708.484000", "105708.484000", "105708.484000", "105708.484000", "105708.500000", "105708.500000", "105708.500000", "105708.500000", "105708.500000", "105708.500000", "105708.500000", "105708.500000", "105708.515000", "105708.515000", "105708.515000", "105708.515000", "105708.515000", "105708.515000", "105713.625000", "105713.640000", "105713.640000"],
      "InstanceNumber": [1, 2, 3, 4, 5, 6, 7, 8, 9, 10, 11, 12, 13, 14, 15, 16, 17, 18, 19, 20, 21, 22, 23, 24, 25, 26, 27, 28, 29, 30, 31, 32, 33, 34, 35, 36, 37, 38, 39, 40, 41, 42, 43, 44, 45, 46, 47, 48, 49, 50, 51, 52, 53, 54, 55, 56, 57, 58, 59, 60, 61, 62, 63, 64, 65, 66, 67, 68, 69, 70, 71, 72, 73, 74, 75, 76, 77, 78, 79, 80, 81, 82, 83, 84, 85, 86, 87, 88, 89, 90, 91, 92, 93, 94, 95, 96, 97, 98, 99, 100, 101, 102, 103, 104, 105, 106, 107, 108, 109, 110, 111, 112, 113, 114, 115, 116, 117, 118, 119, 120, 121, 122, 123, 124, 125, 126, 127, 128, 129, 130, 131, 132, 133, 134, 135, 136, 137, 138, 139, 140, 141, 142, 143, 144, 145, 146, 147, 148, 149, 150, 151, 152, 153, 154, 155, 156, 157, 158, 159, 160, 161, 162, 163, 164],
      "LargestImagePixelValue": [2085, 2014, 1980, 1973, 1972, 1962, 1976, 1966, 1977, 2016, 1999, 1999, 1990, 1997, 1997, 1989, 1984, 1970, 1975, 1975, 1965, 1997, 1988, 1989, 1986, 1986, 2005, 1992, 1989, 1978, 1986, 1988, 1975, 1973, 1974, 1980, 1988, 1985, 2000, 1977, 1985, 1970, 1966, 1969, 1970, 1983, 1972, 1989, 1983, 1969, 1969, 1957, 1963, 1983, 1979, 1966, 1948, 1941, 1957, 1970, 1964, 1945, 1944, 1949, 1961, 1941, 1951, 1972, 1956, 1934, 1946, 1947, 1947, 1995, 1961, 1958, 1956, 1937, 1954, 1960, 1940, 1964, 1963, 1940, 1943, 1932, 1945, 1970, 1949, 1964, 1975, 1964, 1960, 1953, 1962, 1958, 1949, 1978, 1958, 1947, 1940, 1950, 1956, 1944, 1957, 1950, 1967, 1940, 1945, 1956, 1944, 1960, 1928, 1950, 1932, 1956, 1949, 1933, 1936, 1934, 1937, 1951, 1914, 1933, 1938, 1921, 1958, 1923, 1958, 1925, 1926, 1938, 1938, 1949, 1917, 1925, 1952, 1923, 1947, 1944, 1944, 1931, 1931, 1947, 1914, 1968, 1922, 1941, 1941, 1970, 1933, 1948, 1945, 1957, 2058, 1999, 2014, 1992, 1995, 1978, 1989, 1987, 1977, 1982],
      "WindowCenter": [752.0, 750.0, 749.0, 748.0, 747.0, 747.0, 748.0, 747.0, 746.0, 746.0, 746.0, 747.0, 748.0, 748.0, 748.0, 748.0, 747.0, 748.0, 747.0, 747.0, 747.0, 747.0, 748.0, 748.0, 747.0, 747.0, 747.0, 748.0, 748.0, 748.0, 747.0, 747.0, 747.0, 747.0, 748.0, 748.0, 747.0, 747.0, 747.0, 748.0, 749.0, 749.0, 748.0, 747.0, 747.0, 747.0, 747.0, 747.0, 747.0, 747.0, 748.0, 747.0, 746.0, 746.0, 747.0, 747.0, 748.0, 748.0, 747.0, 747.0, 748.0, 750.0, 749.0, 748.0, 748.0, 747.0, 747.0, 748.0, 748.0, 749.0, 749.0, 748.0, 748.0, 747.0, 747.0, 747.0, 747.0, 748.0, 748.0, 748.0, 747.0, 747.0, 748.0, 747.0, 748.0, 748.0, 748.0, 748.0, 748.0, 747.0, 748.0, 747.0, 748.0, 748.0, 747.0, 747.0, 748.0, 747.0, 748.0, 748.0, 748.0, 748.0, 748.0, 748.0, 748.0, 747.0, 747.0, 747.0, 748.0, 749.0, 749.0, 749.0, 749.0, 749.0, 748.0, 748.0, 749.0, 750.0, 750.0, 749.0, 749.0, 749.0, 749.0, 750.0, 750.0, 748.0, 748.0, 748.0, 748.0, 748.0, 749.0, 749.0, 749.0, 749.0, 748.0, 748.0, 749.0, 749.0, 750.0, 749.0, 748.0, 748.0, 749.0, 749.0, 749.0, 750.0, 750.0, 751.0, 750.0, 749.0, 749.0, 750.0, 749.0, 749.0, 750.0, 750.0, 750.0, 750.0, 749.0, 748.0, 747.0, 747.0, 747.0, 748.0],
      "WindowWidth": [1630.0, 1622.0, 1619.0, 1616.0, 1614.0, 1616.0, 1617.0, 1613.0, 1612.0, 1611.0, 1612.0, 1615.0, 1617.0, 1616.0, 1618.0, 1617.0, 1615.0, 1617.0, 1616.0, 1616.0, 1615.0, 1616.0, 1617.0, 1617.0, 1616.0, 1614.0, 1616.0, 1617.0, 1618.0, 1617.0, 1615.0, 1615.0, 1614.0, 1616.0, 1617.0, 1617.0, 1615.0, 1615.0, 1615.0, 1617.0, 1620.0, 1620.0, 1618.0, 1616.0, 1614.0, 1615.0, 1614.0, 1615.0, 1616.0, 1615.0, 1617.0, 1615.0, 1613.0, 1614.0, 1614.0, 1616.0, 1618.0, 1617.0, 1614.0, 1615.0, 1619.0, 1622.0, 1620.0, 1617.0, 1617.0, 1615.0, 1614.0, 1616.0, 1618.0, 1621.0, 1620.0, 1618.0, 1616.0, 1614.0, 1615.0, 1614.0, 1616.0, 1617.0, 1618.0, 1616.0, 1616.0, 1616.0, 1616.0, 1616.0, 1617.0, 1618.0, 1619.0, 1617.0, 1618.0, 1615.0, 1616.0, 1616.0, 1617.0, 1617.0, 1615.0, 1615.0, 1616.0, 1616.0, 1616.0, 1617.0, 1617.0, 1619.0, 1618.0, 1616.0, 1616.0, 1614.0, 1615.0, 1615.0, 1617.0, 1620.0, 1620.0, 1619.0, 1619.0, 1619.0, 1618.0, 1617.0, 1620.0, 1621.0, 1622.0, 1620.0, 1620.0, 1620.0, 1618.0, 1622.0, 1621.0, 1618.0, 1618.0, 1616.0, 1618.0, 1618.0, 1620.0, 1620.0, 1618.0, 1619.0, 1616.0, 1617.0, 1620.0, 1619.0, 1621.0, 1620.0, 1617.0, 1617.0, 1618.0, 1619.0, 1618.0, 1621.0, 1622.0, 1623.0, 1621.0, 1618.0, 1618.0, 1621.0, 1620.0, 1619.0, 1621.0, 1621.0, 1620.0, 1623.0, 1618.0, 1615.0, 1614.0, 1614.0, 1614.0, 1616.0]
    },
    "slices": {}
  }
}