{
  "AcquisitionMatrixPE": 64,
  "AcquisitionNumber": 1,
  "AcquisitionTime": "11:46:29.462500",
  "BandwidthPerPixelPhaseEncode": 33.967,
  "BaseResolution": 64,
  "CoilCombinationMethod": "Sum of Squares",
  "CoilString": "C:HEA;HEP",
  "ConversionSoftware": "dcm2niix",
  "ConversionSoftwareVersion": "v1.0.20220720",
  "DerivedVendorReportedEchoSpacing": 0.000460005,
  "DeviceSerialNumber": "35193",
  "DwellTime": 3.1e-06,
  "EchoTime": 0.03,
  "EffectiveEchoSpacing": 0.000460005,
  "FlipAngle": 90,
  "HeudiconvVersion": "1.1.6",
  "ImageOrientationPatientDICOM": [0.996779, 0, 0.0801989, 0, 1, 0],
  "ImageOrientationText": "Tra>Sag(4.6)",
  "ImageType": [
    "ORIGINAL",
    "PRIMARY",
    "M",
    "ND",
    "MOSAIC"
],
  "ImagingFrequency": 123.254,
  "InPlanePhaseEncodingDirectionDICOM": "COL",
  "InstitutionAddress": "Xinjiekouwai Street No 19,Beijing,Haidian District,CN,100875",
  "InstitutionName": "BNU MRI Center",
  "InstitutionalDepartmentName": "Department",
  "MRAcquisitionType": "2D",
  "MagneticFieldStrength": 3,
  "Manufacturer": "Siemens",
  "ManufacturersModelName": "TrioTim",
  "MatrixCoilMode": "SENSE",
  "Modality": "MR",
  "NonlinearGradientCorrection": false,
  "PartialFourier": 1,
  "PatientPosition": "HFS",
  "PercentPhaseFOV": 100,
  "PercentSampling": 100,
  "PhaseEncodingDirection": "j-",
  "PhaseEncodingSteps": 64,
  "PhaseResolution": 1,
  "PixelBandwidth": 2520,
  "ProcedureStepDescription": "BNU_cst_2015^Guo.TaoMei",
  "ProtocolName": "ge_func_3x3x4_164",
  "PulseSequenceDetails": "%SiemensSeq%\\ep2d_bold",
  "ReceiveCoilName": "HeadMatrix",
  "ReconMatrixPE": 64,
  "RepetitionTime": 2,
  "SAR": 0.117452,
  "ScanOptions": "FS",
  "ScanningSequence": "EP",
  "SequenceName": "*epfid2d1_64",
  "SequenceVariant": "SK",
  "SeriesDescription": "ge_func_3x3x4_164",
  "SeriesNumber": 2,
  "ShimSetting": [-4474, -19323, -9936, 1090, -10, -236, 115, -96],
  "SliceThickness": 4,
  "SliceTiming": [0, 1.035, 0.06, 1.095, 0.1225, 1.155, 0.1825, 1.2175, 0.2425, 1.2775, 0.305, 1.3375, 0.365, 1.4, 0.425, 1.46, 0.4875, 1.52, 0.5475, 1.5825, 0.6075, 1.6425, 0.67, 1.7025, 0.73, 1.765, 0.79, 1.825, 0.8525, 1.885, 0.9125, 1.9475, 0.9725],
  "SoftwareVersions": "syngo MR B17",
  "SpacingBetweenSlices": 4.6,
  "StationName": "MRC35193",
  "TaskName": "LanguageControl",
  "TotalReadoutTime": 0.0289803,
  "TxRefAmp": 361.309,
  "dcmmeta_affine": [
    [-3.114933967590332, 0.0, 0.36891505122184753, 104.57042694091797],
    [0.0, 3.125, 0.0, -87.42921447753906],
    [0.25062164664268494, 0.0, 4.5851826667785645, -107.6960678100586],
    [0.0, 0.0, 0.0, 1.0]
],
  "dcmmeta_reorient_transform": [
    [0.0, -1.0, 0.0, 63.0],
    [1.0, 0.0, 0.0, 0.0],
    [0.0, 0.0, 1.0, 0.0],
    [0.0, 0.0, 0.0, 1.0]
],
  "dcmmeta_shape": [64, 64, 33, 164],
  "dcmmeta_slice_dim": 2,
  "dcmmeta_version": 0.6,
  "global": {
    "const": {
      "AcquisitionMatrix": [64, 0, 0, 64],
      "AngioFlag": "N",
      "BitsAllocated": 16,
      "BitsStored": 12,
      "Columns": 384,
      "EchoNumbers": 1,
      "EchoTime": 30.0,
      "EchoTrainLength": 1,
      "FlipAngle": 90.0,
      "HighBit": 11,
      "ImageOrientationPatient": [0.99677887851542, 0.0, 0.08019892359337, 0.0, 1.0, 0.0],
      "ImagePositionPatient": [-602.95986708728, -609.44578266144, -147.79553213454],
      "ImageType": [
        "ORIGINAL",
        "PRIMARY",
        "M",
        "ND",
        "MOSAIC"
],
      "ImagedNucleus": "1H",
      "ImagingFrequency": 123.253921,
      "InPlanePhaseEncodingDirection": "COL",
      "MRAcquisitionType": "2D",
      "MagneticFieldStrength": 3.0,
      "Manufacturer": "SIEMENS",
      "ManufacturerModelName": "TrioTim",
      "Modality": "MR",
      "NumberOfAverages": 1.0,
      "NumberOfPhaseEncodingSteps": 64,
      "PercentPhaseFieldOfView": 100.0,
      "PercentSampling": 100.0,
      "PerformedProcedureStepStartTime": "114423.890000",
      "PhotometricInterpretation": "MONOCHROME2",
      "PixelBandwidth": 2520.0,
      "PixelRepresentation": 0,
      "PixelSpacing": [3.125, 3.125],
      "ProtocolName": "ge_func_3x3x4_164",
      "RepetitionTime": 2000.0,
      "Rows": 384,
      "SAR": 0.11745167983396,
      "SamplesPerPixel": 1,
      "ScanOptions": "FS",
      "ScanningSequence": "EP",
      "SequenceName": "*epfid2d1_64",
      "SequenceVariant": "SK",
      "SeriesDescription": "ge_func_3x3x4_164",
      "SeriesNumber": 2,
      "SeriesTime": "114730.140000",
      "SliceLocation": -98.962732460253,
      "SliceThickness": 4.0,
      "SmallestImagePixelValue": 0,
      "SoftwareVersions": "syngo MR B17",
      "SpacingBetweenSlices": 4.5999999428205,
      "SpecificCharacterSet": "ISO_IR 100",
      "StudyID": "1",
      "StudyTime": "114422.968000",
      "TransmitCoilName": "Body",
      "VariableFlipAngleFlag": "N",
      "WindowCenterWidthExplanation": "Algo1",
      "dBdt": 0.0},
    "slices": {}
  },
  "time": {
    "samples": {
      "AcquisitionNumber": [1, 2, 3, 4, 5, 6, 7, 8, 9, 10, 11, 12, 13, 14, 15, 16, 17, 18, 19, 20, 21, 22, 23, 24, 25, 26, 27, 28, 29, 30, 31, 32, 33, 34, 35, 36, 37, 38, 39, 40, 41, 42, 43, 44, 45, 46, 47, 48, 49, 50, 51, 52, 53, 54, 55, 56, 57, 58, 59, 60, 61, 62, 63, 64, 65, 66, 67, 68, 69, 70, 71, 72, 73, 74, 75, 76, 77, 78, 79, 80, 81, 82, 83, 84, 85, 86, 87, 88, 89, 90, 91, 92, 93, 94, 95, 96, 97, 98, 99, 100, 101, 102, 103, 104, 105, 106, 107, 108, 109, 110, 111, 112, 113, 114, 115, 116, 117, 118, 119, 120, 121, 122, 123, 124, 125, 126, 127, 128, 129, 130, 131, 132, 133, 134, 135, 136, 137, 138, 139, 140, 141, 142, 143, 144, 145, 146, 147, 148, 149, 150, 151, 152, 153, 154, 155, 156, 157, 158, 159, 160, 161, 162, 163, 164],
      "AcquisitionTime": ["114629.462500", "114631.470000", "114633.477500", "114635.487500", "114637.495000", "114639.502500", "114641.510000", "114643.520000", "114645.527500", "114647.535000", "114649.542500", "114651.550000", "114653.560000", "114655.567500", "114657.575000", "114659.582500", "114701.590000", "114703.600000", "114705.607500", "114707.615000", "114709.622500", "114711.632500", "114713.640000", "114715.647500", "114717.655000", "114719.662500", "114721.672500", "114723.680000", "114725.687500", "114727.695000", "114729.702500", "114731.712500", "114733.720000", "114735.727500", "114737.735000", "114739.745000", "114741.752500", "114743.760000", "114745.767500", "114747.775000", "114749.785000", "114751.792500", "114753.800000", "114755.807500", "114757.815000", "114759.825000", "114801.832500", "114803.840000", "114805.847500", "114807.857500", "114809.865000", "114811.872500", "114813.880000", "114815.887500", "114817.897500", "114819.905000", "114821.912500", "114823.920000", "114825.927500", "114827.937500", "114829.945000", "114831.952500", "114833.960000", "114835.967500", "114837.977500", "114839.985000", "114841.992500", "114844.000000", "114846.010000", "114848.017500", "114850.025000", "114852.032500", "114854.040000", "114856.050000", "114858.057500", "114900.065000", "114902.072500", "114904.080000", "114906.090000", "114908.097500", "114910.105000", "114912.112500", "114914.122500", "114916.130000", "114918.137500", "114920.145000", "114922.152500", "114924.162500", "114926.170000", "114928.177500", "114930.185000", "114932.192500", "114934.202500", "114936.210000", "114938.217500", "114940.225000", "114942.235000", "114944.242500", "114946.250000", "114948.257500", "114950.265000", "114952.275000", "114954.282500", "114956.290000", "114958.297500", "115000.305000", "115002.315000", "115004.322500", "115006.330000", "115008.337500", "115010.345000", "115012.355000", "115014.362500", "115016.370000", "115018.377500", "115020.387500", "115022.395000", "115024.402500", "115026.410000", "115028.417500", "115030.427500", "115032.435000", "115034.442500", "115036.450000", "115038.457500", "115040.467500", "115042.475000", "115044.482500", "115046.490000", "115048.500000", "115050.507500", "115052.515000", "115054.522500", "115056.530000", "115058.540000", "115100.547500", "115102.555000", "115104.562500", "115106.570000", "115108.580000", "115110.587500", "115112.595000", "115114.602500", "115116.612500", "115118.620000", "115120.627500", "115122.635000", "115124.642500", "115126.652500", "115128.660000", "115130.667500", "115132.675000", "115134.682500", "115136.692500", "115138.700000", "115140.707500", "115142.715000", "115144.722500", "115146.732500", "115148.740000", "115150.747500", "115152.755000", "115154.765000", "115156.772500"],
      "ContentTime": ["114730.156000", "114730.156000", "114730.156000", "114730.156000", "114730.156000", "114730.156000", "114730.156000", "114730.156000", "114730.171000", "114730.171000", "114730.171000", "114730.171000", "114730.171000", "114730.171000", "114730.171000", "114730.171000", "114730.187000", "114730.187000", "114730.187000", "114730.187000", "114730.203000", "114730.203000", "114730.203000", "114730.203000", "114730.203000", "114730.218000", "114730.218000", "114730.218000", "114730.218000", "114810.140000", "114810.156000", "114810.156000", "114810.156000", "114810.156000", "114810.156000", "114810.156000", "114810.156000", "114810.156000", "114810.171000", "114810.171000", "114810.171000", "114810.171000", "114810.171000", "114810.171000", "114810.171000", "114810.171000", "114810.187000", "114810.187000", "114810.187000", "114850.140000", "114850.140000", "114850.140000", "114850.156000", "114850.156000", "114850.156000", "114850.156000", "114850.156000", "114850.171000", "114850.171000", "114850.171000", "114850.171000", "114850.171000", "114850.187000", "114850.187000", "114850.187000", "114850.187000", "114850.187000", "114850.187000", "114850.187000", "114930.140000", "114930.140000", "114930.140000", "114930.140000", "114930.156000", "114930.156000", "114930.156000", "114930.156000", "114930.156000", "114930.156000", "114930.156000", "114930.156000", "114930.171000", "114930.171000", "114930.171000", "114930.171000", "114930.171000", "114930.171000", "114930.171000", "114930.171000", "115010.140000", "115010.156000", "115010.156000", "115010.156000", "115010.171000", "115010.171000", "115010.171000", "115010.171000", "115010.171000", "115010.187000", "115010.187000", "115010.187000", "115010.187000", "115010.187000", "115010.203000", "115010.203000", "115010.203000", "115010.203000", "115010.203000", "115010.203000", "115050.140000", "115050.140000", "115050.140000", "115050.140000", "115050.156000", "115050.156000", "115050.156000", "115050.156000", "115050.156000", "115050.156000", "115050.156000", "115050.156000", "115050.156000", "115050.171000", "115050.171000", "115050.171000", "115050.171000", "115050.171000", "115050.171000", "115050.171000", "115130.140000", "115130.140000", "115130.140000", "115130.140000", "115130.156000", "115130.156000", "115130.156000", "115130.171000", "115130.171000", "115130.171000", "115130.171000", "115130.171000", "115130.171000", "115130.171000", "115130.187000", "115130.187000", "115130.187000", "115130.187000", "115130.187000", "115130.187000", "115158.671000", "115158.671000", "115158.671000", "115158.687000", "115158.687000", "115158.687000", "115158.687000", "115158.687000", "115158.703000", "115158.703000", "115158.703000", "115158.703000", "115158.703000", "115158.703000", "115158.703000"],
      "InstanceCreationTime": ["114730.156000", "114730.156000", "114730.156000", "114730.156000", "114730.156000", "114730.156000", "114730.156000", "114730.156000", "114730.171000", "114730.171000", "114730.171000", "114730.171000", "114730.171000", "114730.171000", "114730.171000", "114730.171000", "114730.187000", "114730.187000", "114730.187000", "114730.187000", "114730.203000", "114730.203000", "114730.203000", "114730.203000", "114730.203000", "114730.218000", "114730.218000", "114730.218000", "114730.218000", "114810.140000", "114810.156000", "114810.156000", "114810.156000", "114810.156000", "114810.156000", "114810.156000", "114810.156000", "114810.156000", "114810.171000", "114810.171000", "114810.171000", "114810.171000", "114810.171000", "114810.171000", "114810.171000", "114810.171000", "114810.187000", "114810.187000", "114810.187000", "114850.140000", "114850.140000", "114850.140000", "114850.156000", "114850.156000", "114850.156000", "114850.156000", "114850.156000", "114850.171000", "114850.171000", "114850.171000", "114850.171000", "114850.171000", "114850.187000", "114850.187000", "114850.187000", "114850.187000", "114850.187000", "114850.187000", "114850.187000", "114930.140000", "114930.140000", "114930.140000", "114930.140000", "114930.156000", "114930.156000", "114930.156000", "114930.156000", "114930.156000", "114930.156000", "114930.156000", "114930.156000", "114930.171000", "114930.171000", "114930.171000", "114930.171000", "114930.171000", "114930.171000", "114930.171000", "114930.171000", "115010.140000", "115010.156000", "115010.156000", "115010.156000", "115010.171000", "115010.171000", "115010.171000", "115010.171000", "115010.171000", "115010.187000", "115010.187000", "115010.187000", "115010.187000", "115010.187000", "115010.203000", "115010.203000", "115010.203000", "115010.203000", "115010.203000", "115010.203000", "115050.140000", "115050.140000", "115050.140000", "115050.140000", "115050.156000", "115050.156000", "115050.156000", "115050.156000", "115050.156000", "115050.156000", "115050.156000", "115050.156000", "115050.156000", "115050.171000", "115050.171000", "115050.171000", "115050.171000", "115050.171000", "115050.171000", "115050.171000", "115130.140000", "115130.140000", "115130.140000", "115130.140000", "115130.156000", "115130.156000", "115130.156000", "115130.171000", "115130.171000", "115130.171000", "115130.171000", "115130.171000", "115130.171000", "115130.171000", "115130.187000", "115130.187000", "115130.187000", "115130.187000", "115130.187000", "115130.187000", "115158.671000", "115158.671000", "115158.671000", "115158.687000", "115158.687000", "115158.687000", "115158.687000", "115158.687000", "115158.703000", "115158.703000", "115158.703000", "115158.703000", "115158.703000", "115158.703000", "115158.703000"],
      "InstanceNumber": [1, 2, 3, 4, 5, 6, 7, 8, 9, 10, 11, 12, 13, 14, 15, 16, 17, 18, 19, 20, 21, 22, 23, 24, 25, 26, 27, 28, 29, 30, 31, 32, 33, 34, 35, 36, 37, 38, 39, 40, 41, 42, 43, 44, 45, 46, 47, 48, 49, 50, 51, 52, 53, 54, 55, 56, 57, 58, 59, 60, 61, 62, 63, 64, 65, 66, 67, 68, 69, 70, 71, 72, 73, 74, 75, 76, 77, 78, 79, 80, 81, 82, 83, 84, 85, 86, 87, 88, 89, 90, 91, 92, 93, 94, 95, 96, 97, 98, 99, 100, 101, 102, 103, 104, 105, 106, 107, 108, 109, 110, 111, 112, 113, 114, 115, 116, 117, 118, 119, 120, 121, 122, 123, 124, 125, 126, 127, 128, 129, 130, 131, 132, 133, 134, 135, 136, 137, 138, 139, 140, 141, 142, 143, 144, 145, 146, 147, 148, 149, 150, 151, 152, 153, 154, 155, 156, 157, 158, 159, 160, 161, 162, 163, 164],
      "LargestImagePixelValue": [2041, 1983, 1922, 1949, 1987, 1981, 1963, 1965, 1940, 1953, 1971, 2008, 1982, 1935, 1974, 1996, 1948, 1995, 1975, 1958, 1958, 2006, 2002, 1924, 2021, 1982, 2000, 1971, 2039, 1960, 1990, 1986, 1988, 1975, 1970, 2025, 1989, 1976, 1983, 2015, 1972, 1947, 1987, 1987, 1945, 2018, 1965, 1958, 1992, 1962, 1980, 1955, 1970, 1985, 1931, 1980, 1966, 1955, 1962, 1951, 1909, 1937, 1949, 1957, 1948, 1967, 1949, 1941, 1936, 1936, 1978, 1953, 1965, 1946, 1958, 1932, 1899, 1947, 1927, 1933, 1929, 1912, 1926, 1956, 1947, 1922, 1926, 1934, 1935, 1968, 1901, 1932, 1931, 1908, 1924, 1888, 1907, 1933, 1910, 1911, 1877, 1909, 1918, 1881, 1900, 1931, 1885, 1926, 1880, 1927, 1912, 1897, 1918, 1883, 1894, 1894, 1921, 1921, 1902, 1907, 1946, 1891, 1942, 1882, 1908, 1934, 1879, 1885, 1890, 1889, 1884, 1908, 1868, 1887, 1884, 1908, 1901, 1911, 1903, 1906, 1893, 1874, 1885, 1897, 1881, 1877, 1879, 1896, 1899, 1919, 1877, 1894, 1880, 1906, 1878, 1878, 1905, 1904, 1882, 1893, 1878, 1900, 1888, 1897],
      "WindowCenter": [752.0, 750.0, 751.0, 750.0, 750.0, 747.0, 746.0, 745.0, 744.0, 745.0, 745.0, 746.0, 747.0, 747.0, 747.0, 746.0, 746.0, 745.0, 747.0, 747.0, 746.0, 747.0, 749.0, 748.0, 746.0, 745.0, 746.0, 745.0, 746.0, 746.0, 747.0, 746.0, 746.0, 746.0, 745.0, 745.0, 745.0, 746.0, 746.0, 746.0, 745.0, 744.0, 744.0, 744.0, 744.0, 744.0, 745.0, 744.0, 744.0, 744.0, 744.0, 745.0, 744.0, 743.0, 744.0, 743.0, 743.0, 743.0, 744.0, 744.0, 743.0, 745.0, 744.0, 744.0, 744.0, 745.0, 746.0, 745.0, 745.0, 744.0, 745.0, 745.0, 744.0, 744.0, 745.0, 746.0, 744.0, 744.0, 744.0, 746.0, 745.0, 745.0, 744.0, 744.0, 745.0, 745.0, 746.0, 745.0, 744.0, 745.0, 746.0, 745.0, 743.0, 741.0, 742.0, 742.0, 743.0, 742.0, 742.0, 742.0, 741.0, 742.0, 743.0, 743.0, 743.0, 742.0, 741.0, 743.0, 744.0, 744.0, 742.0, 741.0, 742.0, 742.0, 742.0, 742.0, 742.0, 741.0, 742.0, 743.0, 742.0, 741.0, 741.0, 742.0, 742.0, 742.0, 741.0, 742.0, 742.0, 742.0, 742.0, 742.0, 741.0, 742.0, 743.0, 743.0, 742.0, 742.0, 742.0, 742.0, 741.0, 740.0, 740.0, 742.0, 742.0, 741.0, 739.0, 738.0, 738.0, 740.0, 741.0, 742.0, 742.0, 741.0, 742.0, 741.0, 741.0, 741.0, 740.0, 741.0, 743.0, 745.0, 744.0, 741.0],
      "WindowWidth": [1612.0, 1607.0, 1608.0, 1607.0, 1604.0, 1597.0, 1594.0, 1593.0, 1590.0, 1592.0, 1594.0, 1597.0, 1599.0, 1598.0, 1598.0, 1594.0, 1595.0, 1594.0, 1600.0, 1599.0, 1595.0, 1598.0, 1603.0, 1600.0, 1597.0, 1595.0, 1595.0, 1593.0, 1595.0, 1596.0, 1599.0, 1597.0, 1596.0, 1596.0, 1593.0, 1593.0, 1595.0, 1597.0, 1596.0, 1598.0, 1595.0, 1592.0, 1591.0, 1592.0, 1591.0, 1593.0, 1593.0, 1592.0, 1590.0, 1591.0, 1593.0, 1593.0, 1592.0, 1590.0, 1590.0, 1589.0, 1589.0, 1590.0, 1593.0, 1593.0, 1589.0, 1592.0, 1591.0, 1590.0, 1592.0, 1595.0, 1598.0, 1595.0, 1593.0, 1592.0, 1592.0, 1593.0, 1592.0, 1592.0, 1595.0, 1596.0, 1592.0, 1592.0, 1592.0, 1596.0, 1595.0, 1593.0, 1590.0, 1591.0, 1594.0, 1595.0, 1596.0, 1593.0, 1592.0, 1595.0, 1597.0, 1594.0, 1587.0, 1582.0, 1586.0, 1586.0, 1589.0, 1585.0, 1585.0, 1586.0, 1584.0, 1585.0, 1587.0, 1587.0, 1589.0, 1585.0, 1584.0, 1587.0, 1591.0, 1591.0, 1586.0, 1584.0, 1585.0, 1587.0, 1586.0, 1585.0, 1586.0, 1582.0, 1586.0, 1587.0, 1584.0, 1582.0, 1583.0, 1584.0, 1585.0, 1584.0, 1583.0, 1587.0, 1586.0, 1585.0, 1585.0, 1585.0, 1583.0, 1586.0, 1587.0, 1589.0, 1585.0, 1585.0, 1586.0, 1585.0, 1582.0, 1581.0, 1581.0, 1586.0, 1585.0, 1582.0, 1577.0, 1574.0, 1575.0, 1580.0, 1584.0, 1586.0, 1584.0, 1584.0, 1584.0, 1584.0, 1582.0, 1582.0, 1579.0, 1583.0, 1589.0, 1594.0, 1590.0, 1583.0]
    },
    "slices": {}
  }
}