{
  "AcquisitionMatrixPE": 64,
  "AcquisitionNumber": 1,
  "AcquisitionTime": "11:52:37.582500",
  "BandwidthPerPixelPhaseEncode": 33.967,
  "BaseResolution": 64,
  "CoilCombinationMethod": "Sum of Squares",
  "CoilString": "C:HEA;HEP",
  "ConversionSoftware": "dcm2niix",
  "ConversionSoftwareVersion": "v1.0.20220720",
  "DerivedVendorReportedEchoSpacing": 0.000460005,
  "DeviceSerialNumber": "35193",
  "DwellTime": 3.1e-06,
  "EchoTime": 0.03,
  "EffectiveEchoSpacing": 0.000460005,
  "FlipAngle": 90,
  "HeudiconvVersion": "1.1.6",
  "ImageOrientationPatientDICOM": [0.996779, 0, 0.0801989, 0, 1, 0],
  "ImageOrientationText": "Tra>Sag(4.6)",
  "ImageType": [
    "ORIGINAL",
    "PRIMARY",
    "M",
    "ND",
    "MOSAIC"
],
  "ImagingFrequency": 123.254,
  "InPlanePhaseEncodingDirectionDICOM": "COL",
  "InstitutionAddress": "Xinjiekouwai Street No 19,Beijing,Haidian District,CN,100875",
  "InstitutionName": "BNU MRI Center",
  "InstitutionalDepartmentName": "Department",
  "MRAcquisitionType": "2D",
  "MagneticFieldStrength": 3,
  "Manufacturer": "Siemens",
  "ManufacturersModelName": "TrioTim",
  "MatrixCoilMode": "SENSE",
  "Modality": "MR",
  "NonlinearGradientCorrection": false,
  "PartialFourier": 1,
  "PatientPosition": "HFS",
  "PercentPhaseFOV": 100,
  "PercentSampling": 100,
  "PhaseEncodingDirection": "j-",
  "PhaseEncodingSteps": 64,
  "PhaseResolution": 1,
  "PixelBandwidth": 2520,
  "ProcedureStepDescription": "BNU_cst_2015^Guo.TaoMei",
  "ProtocolName": "ge_func_3x3x4_164",
  "PulseSequenceDetails": "%SiemensSeq%\\ep2d_bold",
  "ReceiveCoilName": "HeadMatrix",
  "ReconMatrixPE": 64,
  "RepetitionTime": 2,
  "SAR": 0.117452,
  "ScanOptions": "FS",
  "ScanningSequence": "EP",
  "SequenceName": "*epfid2d1_64",
  "SequenceVariant": "SK",
  "SeriesDescription": "ge_func_3x3x4_164",
  "SeriesNumber": 3,
  "ShimSetting": [-4474, -19323, -9936, 1090, -10, -236, 115, -96],
  "SliceThickness": 4,
  "SliceTiming": [0, 1.035, 0.0625, 1.095, 0.1225, 1.1575, 0.1825, 1.2175, 0.245, 1.2775, 0.305, 1.34, 0.365, 1.4, 0.4275, 1.46, 0.4875, 1.5225, 0.5475, 1.5825, 0.61, 1.6425, 0.67, 1.705, 0.73, 1.765, 0.7925, 1.825, 0.8525, 1.8875, 0.9125, 1.9475, 0.975],
  "SoftwareVersions": "syngo MR B17",
  "SpacingBetweenSlices": 4.6,
  "StationName": "MRC35193",
  "TaskName": "LanguageControl",
  "TotalReadoutTime": 0.0289803,
  "TxRefAmp": 361.309,
  "dcmmeta_affine": [
    [-3.114933967590332, 0.0, 0.36891505122184753, 104.57042694091797],
    [0.0, 3.125, 0.0, -87.42921447753906],
    [0.25062164664268494, 0.0, 4.5851826667785645, -107.6960678100586],
    [0.0, 0.0, 0.0, 1.0]
],
  "dcmmeta_reorient_transform": [
    [0.0, -1.0, 0.0, 63.0],
    [1.0, 0.0, 0.0, 0.0],
    [0.0, 0.0, 1.0, 0.0],
    [0.0, 0.0, 0.0, 1.0]
],
  "dcmmeta_shape": [64, 64, 33, 164],
  "dcmmeta_slice_dim": 2,
  "dcmmeta_version": 0.6,
  "global": {
    "const": {
      "AcquisitionMatrix": [64, 0, 0, 64],
      "AngioFlag": "N",
      "BitsAllocated": 16,
      "BitsStored": 12,
      "Columns": 384,
      "EchoNumbers": 1,
      "EchoTime": 30.0,
      "EchoTrainLength": 1,
      "FlipAngle": 90.0,
      "HighBit": 11,
      "ImageOrientationPatient": [0.99677887851542, 0.0, 0.08019892359337, 0.0, 1.0, 0.0],
      "ImagePositionPatient": [-602.95986708728, -609.44578266144, -147.79553213454],
      "ImageType": [
        "ORIGINAL",
        "PRIMARY",
        "M",
        "ND",
        "MOSAIC"
],
      "ImagedNucleus": "1H",
      "ImagingFrequency": 123.25392,
      "InPlanePhaseEncodingDirection": "COL",
      "MRAcquisitionType": "2D",
      "MagneticFieldStrength": 3.0,
      "Manufacturer": "SIEMENS",
      "ManufacturerModelName": "TrioTim",
      "Modality": "MR",
      "NumberOfAverages": 1.0,
      "NumberOfPhaseEncodingSteps": 64,
      "PercentPhaseFieldOfView": 100.0,
      "PercentSampling": 100.0,
      "PerformedProcedureStepStartTime": "114423.890000",
      "PhotometricInterpretation": "MONOCHROME2",
      "PixelBandwidth": 2520.0,
      "PixelRepresentation": 0,
      "PixelSpacing": [3.125, 3.125],
      "ProtocolName": "ge_func_3x3x4_164",
      "RepetitionTime": 2000.0,
      "Rows": 384,
      "SAR": 0.11745167983396,
      "SamplesPerPixel": 1,
      "ScanOptions": "FS",
      "ScanningSequence": "EP",
      "SequenceName": "*epfid2d1_64",
      "SequenceVariant": "SK",
      "SeriesDescription": "ge_func_3x3x4_164",
      "SeriesNumber": 3,
      "SeriesTime": "115320.984000",
      "SliceLocation": -98.962732460253,
      "SliceThickness": 4.0,
      "SmallestImagePixelValue": 0,
      "SoftwareVersions": "syngo MR B17",
      "SpacingBetweenSlices": 4.5999999428205,
      "SpecificCharacterSet": "ISO_IR 100",
      "StudyID": "1",
      "StudyTime": "114422.968000",
      "TransmitCoilName": "Body",
      "VariableFlipAngleFlag": "N",
      "WindowCenterWidthExplanation": "Algo1",
      "dBdt": 0.0},
    "slices": {}
  },
  "time": {
    "samples": {
      "AcquisitionNumber": [1, 2, 3, 4, 5, 6, 7, 8, 9, 10, 11, 12, 13, 14, 15, 16, 17, 18, 19, 20, 21, 22, 23, 24, 25, 26, 27, 28, 29, 30, 31, 32, 33, 34, 35, 36, 37, 38, 39, 40, 41, 42, 43, 44, 45, 46, 47, 48, 49, 50, 51, 52, 53, 54, 55, 56, 57, 58, 59, 60, 61, 62, 63, 64, 65, 66, 67, 68, 69, 70, 71, 72, 73, 74, 75, 76, 77, 78, 79, 80, 81, 82, 83, 84, 85, 86, 87, 88, 89, 90, 91, 92, 93, 94, 95, 96, 97, 98, 99, 100, 101, 102, 103, 104, 105, 106, 107, 108, 109, 110, 111, 112, 113, 114, 115, 116, 117, 118, 119, 120, 121, 122, 123, 124, 125, 126, 127, 128, 129, 130, 131, 132, 133, 134, 135, 136, 137, 138, 139, 140, 141, 142, 143, 144, 145, 146, 147, 148, 149, 150, 151, 152, 153, 154, 155, 156, 157, 158, 159, 160, 161, 162, 163, 164],
      "AcquisitionTime": ["115237.582500", "115239.592500", "115241.600000", "115243.607500", "115245.615000", "115247.622500", "115249.632500", "115251.640000", "115253.647500", "115255.655000", "115257.662500", "115259.672500", "115301.680000", "115303.687500", "115305.695000", "115307.705000", "115309.712500", "115311.720000", "115313.727500", "115315.735000", "115317.745000", "115319.752500", "115321.760000", "115323.767500", "115325.775000", "115327.785000", "115329.792500", "115331.800000", "115333.807500", "115335.817500", "115337.825000", "115339.832500", "115341.840000", "115343.847500", "115345.857500", "115347.865000", "115349.872500", "115351.880000", "115353.887500", "115355.897500", "115357.905000", "115359.912500", "115401.920000", "115403.930000", "115405.937500", "115407.945000", "115409.952500", "115411.960000", "115413.970000", "115415.977500", "115417.985000", "115419.992500", "115422.000000", "115424.010000", "115426.017500", "115428.025000", "115430.032500", "115432.040000", "115434.050000", "115436.057500", "115438.065000", "115440.072500", "115442.082500", "115444.090000", "115446.097500", "115448.105000", "115450.112500", "115452.122500", "115454.130000", "115456.137500", "115458.145000", "115500.152500", "115502.162500", "115504.170000", "115506.177500", "115508.185000", "115510.195000", "115512.202500", "115514.210000", "115516.217500", "115518.225000", "115520.235000", "115522.242500", "115524.250000", "115526.257500", "115528.265000", "115530.275000", "115532.282500", "115534.290000", "115536.297500", "115538.307500", "115540.315000", "115542.322500", "115544.330000", "115546.337500", "115548.347500", "115550.355000", "115552.362500", "115554.370000", "115556.377500", "115558.387500", "115600.395000", "115602.402500", "115604.410000", "115606.420000", "115608.427500", "115610.435000", "115612.442500", "115614.450000", "115616.460000", "115618.467500", "115620.475000", "115622.482500", "115624.490000", "115626.500000", "115628.507500", "115630.515000", "115632.522500", "115634.530000", "115636.540000", "115638.547500", "115640.555000", "115642.562500", "115644.572500", "115646.580000", "115648.587500", "115650.595000", "115652.602500", "115654.612500", "115656.620000", "115658.627500", "115700.635000", "115702.642500", "115704.652500", "115706.660000", "115708.667500", "115710.675000", "115712.685000", "115714.692500", "115716.700000", "115718.707500", "115720.715000", "115722.725000", "115724.732500", "115726.740000", "115728.747500", "115730.755000", "115732.765000", "115734.772500", "115736.780000", "115738.787500", "115740.797500", "115742.805000", "115744.812500", "115746.820000", "115748.827500", "115750.837500", "115752.845000", "115754.852500", "115756.860000", "115758.867500", "115800.877500", "115802.885000", "115804.892500"],
      "ContentTime": ["115320.984000", "115320.984000", "115321.000000", "115321.000000", "115321.000000", "115321.000000", "115321.015000", "115321.015000", "115321.015000", "115321.015000", "115321.015000", "115321.015000", "115321.015000", "115321.015000", "115321.031000", "115321.031000", "115321.031000", "115321.031000", "115321.031000", "115321.031000", "115321.031000", "115400.968000", "115400.968000", "115400.968000", "115400.968000", "115400.984000", "115400.984000", "115400.984000", "115400.984000", "115400.984000", "115400.984000", "115400.984000", "115401.000000", "115401.000000", "115401.000000", "115401.000000", "115401.000000", "115401.000000", "115401.000000", "115401.015000", "115401.015000", "115440.968000", "115440.968000", "115440.968000", "115440.968000", "115440.984000", "115440.984000", "115440.984000", "115440.984000", "115440.984000", "115440.984000", "115440.984000", "115440.984000", "115440.984000", "115441.000000", "115441.000000", "115441.000000", "115441.000000", "115441.000000", "115441.000000", "115441.000000", "115520.968000", "115520.968000", "115520.968000", "115520.968000", "115520.984000", "115520.984000", "115520.984000", "115520.984000", "115520.984000", "115520.984000", "115520.984000", "115520.984000", "115521.000000", "115521.000000", "115521.000000", "115521.000000", "115521.000000", "115521.000000", "115521.000000", "115521.000000", "115600.968000", "115600.968000", "115600.968000", "115600.984000", "115600.984000", "115601.000000", "115601.000000", "115601.000000", "115601.000000", "115601.000000", "115601.000000", "115601.015000", "115601.015000", "115601.015000", "115601.015000", "115601.031000", "115601.031000", "115601.031000", "115601.031000", "115601.031000", "115640.968000", "115640.968000", "115640.968000", "115640.968000", "115640.984000", "115640.984000", "115640.984000", "115640.984000", "115640.984000", "115640.984000", "115640.984000", "115640.984000", "115641.000000", "115641.000000", "115641.000000", "115641.000000", "115641.000000", "115641.000000", "115641.000000", "115641.000000", "115720.968000", "115720.968000", "115720.968000", "115720.984000", "115720.984000", "115720.984000", "115720.984000", "115720.984000", "115721.000000", "115721.000000", "115721.000000", "115721.000000", "115721.015000", "115721.015000", "115721.015000", "115721.015000", "115721.015000", "115721.015000", "115721.015000", "115721.015000", "115800.968000", "115800.968000", "115800.968000", "115800.968000", "115800.984000", "115800.984000", "115800.984000", "115800.984000", "115800.984000", "115800.984000", "115800.984000", "115800.984000", "115800.984000", "115801.000000", "115801.000000", "115801.000000", "115801.000000", "115801.000000", "115801.000000", "115801.000000", "115806.765000", "115806.765000", "115806.781000"],
      "InstanceCreationTime": ["115320.984000", "115320.984000", "115321.000000", "115321.000000", "115321.000000", "115321.000000", "115321.015000", "115321.015000", "115321.015000", "115321.015000", "115321.015000", "115321.015000", "115321.015000", "115321.015000", "115321.031000", "115321.031000", "115321.031000", "115321.031000", "115321.031000", "115321.031000", "115321.031000", "115400.968000", "115400.968000", "115400.968000", "115400.968000", "115400.984000", "115400.984000", "115400.984000", "115400.984000", "115400.984000", "115400.984000", "115400.984000", "115401.000000", "115401.000000", "115401.000000", "115401.000000", "115401.000000", "115401.000000", "115401.000000", "115401.015000", "115401.015000", "115440.968000", "115440.968000", "115440.968000", "115440.968000", "115440.984000", "115440.984000", "115440.984000", "115440.984000", "115440.984000", "115440.984000", "115440.984000", "115440.984000", "115440.984000", "115441.000000", "115441.000000", "115441.000000", "115441.000000", "115441.000000", "115441.000000", "115441.000000", "115520.968000", "115520.968000", "115520.968000", "115520.968000", "115520.984000", "115520.984000", "115520.984000", "115520.984000", "115520.984000", "115520.984000", "115520.984000", "115520.984000", "115521.000000", "115521.000000", "115521.000000", "115521.000000", "115521.000000", "115521.000000", "115521.000000", "115521.000000", "115600.968000", "115600.968000", "115600.968000", "115600.984000", "115600.984000", "115601.000000", "115601.000000", "115601.000000", "115601.000000", "115601.000000", "115601.000000", "115601.015000", "115601.015000", "115601.015000", "115601.015000", "115601.031000", "115601.031000", "115601.031000", "115601.031000", "115601.031000", "115640.968000", "115640.968000", "115640.968000", "115640.968000", "115640.984000", "115640.984000", "115640.984000", "115640.984000", "115640.984000", "115640.984000", "115640.984000", "115640.984000", "115641.000000", "115641.000000", "115641.000000", "115641.000000", "115641.000000", "115641.000000", "115641.000000", "115641.000000", "115720.968000", "115720.968000", "115720.968000", "115720.984000", "115720.984000", "115720.984000", "115720.984000", "115720.984000", "115721.000000", "115721.000000", "115721.000000", "115721.000000", "115721.015000", "115721.015000", "115721.015000", "115721.015000", "115721.015000", "115721.015000", "115721.015000", "115721.015000", "115800.968000", "115800.968000", "115800.968000", "115800.968000", "115800.984000", "115800.984000", "115800.984000", "115800.984000", "115800.984000", "115800.984000", "115800.984000", "115800.984000", "115800.984000", "115801.000000", "115801.000000", "115801.000000", "115801.000000", "115801.000000", "115801.000000", "115801.000000", "115806.765000", "115806.765000", "115806.781000"],
      "InstanceNumber": [1, 2, 3, 4, 5, 6, 7, 8, 9, 10, 11, 12, 13, 14, 15, 16, 17, 18, 19, 20, 21, 22, 23, 24, 25, 26, 27, 28, 29, 30, 31, 32, 33, 34, 35, 36, 37, 38, 39, 40, 41, 42, 43, 44, 45, 46, 47, 48, 49, 50, 51, 52, 53, 54, 55, 56, 57, 58, 59, 60, 61, 62, 63, 64, 65, 66, 67, 68, 69, 70, 71, 72, 73, 74, 75, 76, 77, 78, 79, 80, 81, 82, 83, 84, 85, 86, 87, 88, 89, 90, 91, 92, 93, 94, 95, 96, 97, 98, 99, 100, 101, 102, 103, 104, 105, 106, 107, 108, 109, 110, 111, 112, 113, 114, 115, 116, 117, 118, 119, 120, 121, 122, 123, 124, 125, 126, 127, 128, 129, 130, 131, 132, 133, 134, 135, 136, 137, 138, 139, 140, 141, 142, 143, 144, 145, 146, 147, 148, 149, 150, 151, 152, 153, 154, 155, 156, 157, 158, 159, 160, 161, 162, 163, 164],
      "LargestImagePixelValue": [2033, 1913, 1974, 1947, 1934, 1938, 1933, 1938, 1959, 1966, 1883, 1908, 1935, 1918, 1904, 1901, 1934, 1917, 1933, 1919, 1901, 1918, 1901, 1918, 1929, 1930, 1946, 1928, 1908, 1892, 1922, 1938, 1890, 1925, 1901, 1911, 1951, 1926, 1924, 1924, 1918, 1910, 1901, 1910, 1920, 1915, 1915, 1899, 1919, 1911, 1894, 1908, 1911, 1922, 1910, 1903, 1881, 1927, 1911, 1913, 1887, 1930, 1904, 1918, 1873, 1902, 1912, 1888, 1913, 1896, 1917, 1930, 1927, 1918, 1916, 1904, 1922, 1932, 1921, 1903, 1900, 1924, 1903, 1950, 1912, 1955, 1923, 1947, 1926, 1946, 1899, 1932, 1922, 1925, 1929, 1881, 1927, 1967, 1929, 1905, 1905, 1961, 1927, 1925, 1945, 1945, 1941, 1919, 1919, 1947, 1930, 1964, 1968, 1894, 1924, 1883, 1887, 1876, 1928, 1899, 1943, 1929, 1945, 1938, 1910, 1904, 1918, 1966, 1920, 1906, 1919, 1900, 1941, 1919, 1906, 1907, 1928, 1886, 1888, 1901, 1908, 1926, 1927, 1930, 1913, 1919, 1912, 1939, 1907, 1918, 1939, 1918, 1917, 1904, 1921, 1875, 1928, 1923, 1947, 1898, 1922, 1939, 1956, 1927],
      "WindowCenter": [747.0, 745.0, 745.0, 743.0, 742.0, 742.0, 743.0, 742.0, 741.0, 741.0, 740.0, 740.0, 741.0, 740.0, 741.0, 744.0, 745.0, 744.0, 742.0, 741.0, 742.0, 743.0, 743.0, 744.0, 742.0, 742.0, 744.0, 745.0, 744.0, 743.0, 743.0, 743.0, 742.0, 742.0, 741.0, 742.0, 742.0, 743.0, 743.0, 742.0, 741.0, 741.0, 742.0, 743.0, 743.0, 742.0, 742.0, 742.0, 743.0, 743.0, 743.0, 743.0, 743.0, 742.0, 742.0, 742.0, 741.0, 743.0, 742.0, 742.0, 743.0, 744.0, 744.0, 742.0, 741.0, 742.0, 744.0, 744.0, 744.0, 743.0, 742.0, 741.0, 741.0, 741.0, 742.0, 742.0, 743.0, 743.0, 742.0, 741.0, 742.0, 742.0, 743.0, 743.0, 742.0, 742.0, 742.0, 742.0, 742.0, 743.0, 743.0, 744.0, 743.0, 744.0, 744.0, 744.0, 744.0, 743.0, 742.0, 743.0, 744.0, 745.0, 744.0, 742.0, 741.0, 740.0, 741.0, 743.0, 744.0, 744.0, 743.0, 742.0, 743.0, 743.0, 744.0, 742.0, 742.0, 743.0, 743.0, 744.0, 745.0, 744.0, 744.0, 744.0, 744.0, 745.0, 744.0, 743.0, 742.0, 743.0, 743.0, 744.0, 745.0, 745.0, 744.0, 743.0, 743.0, 743.0, 744.0, 744.0, 743.0, 742.0, 743.0, 744.0, 744.0, 744.0, 743.0, 743.0, 743.0, 745.0, 746.0, 745.0, 743.0, 743.0, 744.0, 747.0, 746.0, 744.0, 745.0, 745.0, 745.0, 745.0, 744.0, 743.0],
      "WindowWidth": [1599.0, 1594.0, 1594.0, 1589.0, 1584.0, 1584.0, 1587.0, 1585.0, 1583.0, 1582.0, 1581.0, 1581.0, 1582.0, 1581.0, 1584.0, 1590.0, 1593.0, 1589.0, 1585.0, 1583.0, 1585.0, 1588.0, 1589.0, 1590.0, 1585.0, 1584.0, 1592.0, 1592.0, 1590.0, 1587.0, 1587.0, 1588.0, 1586.0, 1584.0, 1582.0, 1585.0, 1587.0, 1588.0, 1587.0, 1584.0, 1584.0, 1584.0, 1585.0, 1588.0, 1588.0, 1585.0, 1585.0, 1586.0, 1587.0, 1587.0, 1588.0, 1588.0, 1588.0, 1586.0, 1585.0, 1584.0, 1583.0, 1587.0, 1586.0, 1586.0, 1586.0, 1590.0, 1590.0, 1586.0, 1582.0, 1586.0, 1590.0, 1591.0, 1590.0, 1587.0, 1585.0, 1583.0, 1582.0, 1583.0, 1586.0, 1586.0, 1587.0, 1587.0, 1584.0, 1584.0, 1584.0, 1586.0, 1587.0, 1589.0, 1585.0, 1584.0, 1584.0, 1586.0, 1585.0, 1589.0, 1588.0, 1590.0, 1588.0, 1590.0, 1592.0, 1591.0, 1590.0, 1587.0, 1585.0, 1587.0, 1590.0, 1593.0, 1590.0, 1586.0, 1583.0, 1581.0, 1584.0, 1587.0, 1591.0, 1591.0, 1589.0, 1585.0, 1589.0, 1588.0, 1590.0, 1586.0, 1585.0, 1588.0, 1589.0, 1591.0, 1592.0, 1591.0, 1591.0, 1590.0, 1592.0, 1593.0, 1589.0, 1588.0, 1585.0, 1587.0, 1589.0, 1589.0, 1593.0, 1593.0, 1591.0, 1588.0, 1587.0, 1589.0, 1591.0, 1590.0, 1587.0, 1585.0, 1587.0, 1591.0, 1592.0, 1590.0, 1588.0, 1587.0, 1589.0, 1593.0, 1595.0, 1592.0, 1588.0, 1588.0, 1592.0, 1597.0, 1595.0, 1589.0, 1592.0, 1594.0, 1593.0, 1592.0, 1590.0, 1587.0]
    },
    "slices": {}
  }
}