{
  "AcquisitionMatrixPE": 64,
  "AcquisitionNumber": 1,
  "AcquisitionTime": "14:04:39.285000",
  "BandwidthPerPixelPhaseEncode": 33.967,
  "BaseResolution": 64,
  "CoilCombinationMethod": "Sum of Squares",
  "CoilString": "C:HEA;HEP",
  "ConversionSoftware": "dcm2niix",
  "ConversionSoftwareVersion": "v1.0.20220720",
  "DerivedVendorReportedEchoSpacing": 0.000460005,
  "DeviceSerialNumber": "35193",
  "DwellTime": 3.1e-06,
  "EchoTime": 0.03,
  "EffectiveEchoSpacing": 0.000460005,
  "FlipAngle": 90,
  "HeudiconvVersion": "1.1.6",
  "ImageOrientationPatientDICOM": [0.99726, -0.0104718, -0.0732342, 0.0104437, 0.999945, -0.000766933],
  "ImageOrientationText": "Tra>Sag(-4.2)",
  "ImageType": [
    "ORIGINAL",
    "PRIMARY",
    "M",
    "ND",
    "MOSAIC"
],
  "ImagingFrequency": 123.254,
  "InPlanePhaseEncodingDirectionDICOM": "COL",
  "InstitutionAddress": "Xinjiekouwai Street No 19,Beijing,Haidian District,CN,100875",
  "InstitutionName": "BNU MRI Center",
  "InstitutionalDepartmentName": "Department",
  "MRAcquisitionType": "2D",
  "MagneticFieldStrength": 3,
  "Manufacturer": "Siemens",
  "ManufacturersModelName": "TrioTim",
  "MatrixCoilMode": "SENSE",
  "Modality": "MR",
  "NonlinearGradientCorrection": false,
  "PartialFourier": 1,
  "PatientPosition": "HFS",
  "PercentPhaseFOV": 100,
  "PercentSampling": 100,
  "PhaseEncodingDirection": "j-",
  "PhaseEncodingSteps": 64,
  "PhaseResolution": 1,
  "PixelBandwidth": 2520,
  "ProcedureStepDescription": "BNU_cst_2015^Guo.TaoMei",
  "ProtocolName": "ge_func_3x3x4_164",
  "PulseSequenceDetails": "%SiemensSeq%\\ep2d_bold",
  "ReceiveCoilName": "HeadMatrix",
  "ReconMatrixPE": 64,
  "RepetitionTime": 2,
  "SAR": 0.132813,
  "ScanOptions": "FS",
  "ScanningSequence": "EP",
  "SequenceName": "*epfid2d1_64",
  "SequenceVariant": "SK",
  "SeriesDescription": "ge_func_3x3x4_164",
  "SeriesNumber": 5,
  "ShimSetting": [-4538, -19431, -10013, 918, -103, -526, 59, 36],
  "SliceThickness": 4,
  "SliceTiming": [0, 1.035, 0.0625, 1.095, 0.1225, 1.1575, 0.1825, 1.2175, 0.245, 1.2775, 0.305, 1.34, 0.365, 1.4, 0.4275, 1.46, 0.4875, 1.5225, 0.5475, 1.5825, 0.61, 1.6425, 0.67, 1.705, 0.73, 1.765, 0.7925, 1.825, 0.8525, 1.8875, 0.9125, 1.9475, 0.975],
  "SoftwareVersions": "syngo MR B17",
  "SpacingBetweenSlices": 4.6,
  "StationName": "MRC35193",
  "TaskName": "LanguageControl",
  "TotalReadoutTime": 0.0289803,
  "TxRefAmp": 321.751,
  "dcmmeta_affine": [
    [-3.1164369583129883, 0.03263644129037857, -0.3368957042694092, 101.40582275390625],
    [0.032724324613809586, 3.124828577041626, 7.492674924947096e-09, -89.82048034667969],
    [-0.22885681688785553, 0.0023966655135154724, 4.587646484375, -68.17790985107422],
    [0.0, 0.0, 0.0, 1.0]
],
  "dcmmeta_reorient_transform": [
    [0.0, -1.0, 0.0, 63.0],
    [1.0, 0.0, 0.0, 0.0],
    [0.0, 0.0, 1.0, 0.0],
    [0.0, 0.0, 0.0, 1.0]
],
  "dcmmeta_shape": [64, 64, 33, 164],
  "dcmmeta_slice_dim": 2,
  "dcmmeta_version": 0.6,
  "global": {
    "const": {
      "AcquisitionMatrix": [64, 0, 0, 64],
      "AngioFlag": "N",
      "BitsAllocated": 16,
      "BitsStored": 12,
      "Columns": 384,
      "EchoNumbers": 1,
      "EchoTime": 30.0,
      "EchoTrainLength": 1,
      "FlipAngle": 90.0,
      "HighBit": 11,
      "ImageOrientationPatient": [0.99725979374479, -0.0104717835135, -0.0732341827984, 0.01044366141863, 0.99994516937182, -0.000766932935],
      "ImagePositionPatient": [-607.31364385687, -601.7804174708, -31.026363030656],
      "ImageType": [
        "ORIGINAL",
        "PRIMARY",
        "M",
        "ND",
        "MOSAIC"
],
      "ImagedNucleus": "1H",
      "ImagingFrequency": 123.254026,
      "InPlanePhaseEncodingDirection": "COL",
      "MRAcquisitionType": "2D",
      "MagneticFieldStrength": 3.0,
      "Manufacturer": "SIEMENS",
      "ManufacturerModelName": "TrioTim",
      "Modality": "MR",
      "NumberOfAverages": 1.0,
      "NumberOfPhaseEncodingSteps": 64,
      "PercentPhaseFieldOfView": 100.0,
      "PercentSampling": 100.0,
      "PerformedProcedureStepStartTime": "134145.875000",
      "PhotometricInterpretation": "MONOCHROME2",
      "PixelBandwidth": 2520.0,
      "PixelRepresentation": 0,
      "PixelSpacing": [3.125, 3.125],
      "ProtocolName": "ge_func_3x3x4_164",
      "RepetitionTime": 2000.0,
      "Rows": 384,
      "SAR": 0.13281337529373,
      "SamplesPerPixel": 1,
      "ScanOptions": "FS",
      "ScanningSequence": "EP",
      "SequenceName": "*epfid2d1_64",
      "SequenceVariant": "SK",
      "SeriesDescription": "ge_func_3x3x4_164",
      "SeriesNumber": 5,
      "SeriesTime": "140537.968000",
      "SliceLocation": -75.421597229897,
      "SliceThickness": 4.0,
      "SmallestImagePixelValue": 0,
      "SoftwareVersions": "syngo MR B17",
      "SpacingBetweenSlices": 4.5999998903471,
      "SpecificCharacterSet": "ISO_IR 100",
      "StudyID": "1",
      "StudyTime": "134145.796000",
      "TransmitCoilName": "Body",
      "VariableFlipAngleFlag": "N",
      "WindowCenterWidthExplanation": "Algo1",
      "dBdt": 0.0},
    "slices": {}
  },
  "time": {
    "samples": {
      "AcquisitionNumber": [1, 2, 3, 4, 5, 6, 7, 8, 9, 10, 11, 12, 13, 14, 15, 16, 17, 18, 19, 20, 21, 22, 23, 24, 25, 26, 27, 28, 29, 30, 31, 32, 33, 34, 35, 36, 37, 38, 39, 40, 41, 42, 43, 44, 45, 46, 47, 48, 49, 50, 51, 52, 53, 54, 55, 56, 57, 58, 59, 60, 61, 62, 63, 64, 65, 66, 67, 68, 69, 70, 71, 72, 73, 74, 75, 76, 77, 78, 79, 80, 81, 82, 83, 84, 85, 86, 87, 88, 89, 90, 91, 92, 93, 94, 95, 96, 97, 98, 99, 100, 101, 102, 103, 104, 105, 106, 107, 108, 109, 110, 111, 112, 113, 114, 115, 116, 117, 118, 119, 120, 121, 122, 123, 124, 125, 126, 127, 128, 129, 130, 131, 132, 133, 134, 135, 136, 137, 138, 139, 140, 141, 142, 143, 144, 145, 146, 147, 148, 149, 150, 151, 152, 153, 154, 155, 156, 157, 158, 159, 160, 161, 162, 163, 164],
      "AcquisitionTime": ["140439.285000", "140441.292500", "140443.302500", "140445.310000", "140447.317500", "140449.325000", "140451.335000", "140453.342500", "140455.350000", "140457.357500", "140459.365000", "140501.375000", "140503.382500", "140505.390000", "140507.397500", "140509.405000", "140511.415000", "140513.422500", "140515.430000", "140517.437500", "140519.445000", "140521.455000", "140523.462500", "140525.470000", "140527.477500", "140529.487500", "140531.495000", "140533.502500", "140535.510000", "140537.517500", "140539.527500", "140541.535000", "140543.542500", "140545.550000", "140547.557500", "140549.567500", "140551.575000", "140553.582500", "140555.590000", "140557.600000", "140559.607500", "140601.615000", "140603.622500", "140605.630000", "140607.640000", "140609.647500", "140611.655000", "140613.662500", "140615.670000", "140617.680000", "140619.687500", "140621.695000", "140623.702500", "140625.712500", "140627.720000", "140629.727500", "140631.735000", "140633.742500", "140635.752500", "140637.760000", "140639.767500", "140641.775000", "140643.782500", "140645.792500", "140647.800000", "140649.807500", "140651.815000", "140653.822500", "140655.832500", "140657.840000", "140659.847500", "140701.855000", "140703.865000", "140705.872500", "140707.880000", "140709.887500", "140711.895000", "140713.905000", "140715.912500", "140717.920000", "140719.927500", "140721.935000", "140723.945000", "140725.952500", "140727.960000", "140729.967500", "140731.977500", "140733.985000", "140735.992500", "140738.000000", "140740.007500", "140742.017500", "140744.025000", "140746.032500", "140748.040000", "140750.047500", "140752.057500", "140754.065000", "140756.072500", "140758.080000", "140800.090000", "140802.097500", "140804.105000", "140806.112500", "140808.120000", "140810.130000", "140812.137500", "140814.145000", "140816.152500", "140818.160000", "140820.170000", "140822.177500", "140824.185000", "140826.192500", "140828.200000", "140830.210000", "140832.217500", "140834.225000", "140836.232500", "140838.242500", "140840.250000", "140842.257500", "140844.265000", "140846.272500", "140848.282500", "140850.290000", "140852.297500", "140854.305000", "140856.312500", "140858.322500", "140900.330000", "140902.337500", "140904.345000", "140906.355000", "140908.362500", "140910.370000", "140912.377500", "140914.385000", "140916.395000", "140918.402500", "140920.410000", "140922.417500", "140924.425000", "140926.435000", "140928.442500", "140930.450000", "140932.457500", "140934.467500", "140936.475000", "140938.482500", "140940.490000", "140942.497500", "140944.507500", "140946.515000", "140948.522500", "140950.530000", "140952.537500", "140954.547500", "140956.555000", "140958.562500", "141000.570000", "141002.577500", "141004.587500", "141006.595000"],
      "ContentTime": ["140537.984000", "140537.984000", "140537.984000", "140537.984000", "140537.984000", "140537.984000", "140538.000000", "140538.000000", "140538.000000", "140538.000000", "140538.000000", "140538.000000", "140538.000000", "140538.000000", "140538.015000", "140538.015000", "140538.015000", "140538.015000", "140538.015000", "140538.015000", "140538.031000", "140538.031000", "140538.031000", "140538.031000", "140538.031000", "140538.031000", "140538.046000", "140538.046000", "140617.968000", "140617.968000", "140617.984000", "140617.984000", "140617.984000", "140617.984000", "140617.984000", "140617.984000", "140617.984000", "140617.984000", "140618.000000", "140618.000000", "140618.000000", "140618.000000", "140618.000000", "140618.015000", "140618.015000", "140618.015000", "140618.015000", "140618.015000", "140657.968000", "140657.968000", "140657.984000", "140657.984000", "140657.984000", "140657.984000", "140657.984000", "140657.984000", "140658.000000", "140658.000000", "140658.000000", "140658.015000", "140658.015000", "140658.015000", "140658.015000", "140658.015000", "140658.015000", "140658.015000", "140658.015000", "140658.031000", "140737.968000", "140737.968000", "140737.968000", "140737.984000", "140737.984000", "140737.984000", "140737.984000", "140737.984000", "140737.984000", "140737.984000", "140737.984000", "140738.000000", "140738.000000", "140738.000000", "140738.000000", "140738.000000", "140738.015000", "140738.015000", "140738.015000", "140738.015000", "140817.968000", "140817.968000", "140817.984000", "140817.984000", "140817.984000", "140817.984000", "140817.984000", "140817.984000", "140818.000000", "140818.000000", "140818.000000", "140818.000000", "140818.000000", "140818.000000", "140818.000000", "140818.015000", "140818.015000", "140818.015000", "140818.015000", "140818.015000", "140857.968000", "140857.968000", "140857.984000", "140857.984000", "140857.984000", "140858.000000", "140858.000000", "140858.000000", "140858.000000", "140858.000000", "140858.000000", "140858.000000", "140858.015000", "140858.015000", "140858.015000", "140858.015000", "140858.015000", "140858.031000", "140858.031000", "140858.031000", "140917.968000", "140917.968000", "140917.984000", "140917.984000", "140917.984000", "140917.984000", "140917.984000", "140917.984000", "140917.984000", "140917.984000", "140957.968000", "140957.968000", "140957.984000", "140957.984000", "140957.984000", "140957.984000", "140957.984000", "140957.984000", "140957.984000", "140957.984000", "140958.000000", "140958.000000", "140958.000000", "140958.000000", "140958.000000", "140958.000000", "140958.000000", "140958.000000", "140958.015000", "140958.015000", "141008.671000", "141008.671000", "141008.671000", "141008.687000", "141008.687000", "141008.687000"],
      "InstanceCreationTime": ["140537.984000", "140537.984000", "140537.984000", "140537.984000", "140537.984000", "140537.984000", "140538.000000", "140538.000000", "140538.000000", "140538.000000", "140538.000000", "140538.000000", "140538.000000", "140538.000000", "140538.015000", "140538.015000", "140538.015000", "140538.015000", "140538.015000", "140538.015000", "140538.031000", "140538.031000", "140538.031000", "140538.031000", "140538.031000", "140538.031000", "140538.046000", "140538.046000", "140617.968000", "140617.968000", "140617.984000", "140617.984000", "140617.984000", "140617.984000", "140617.984000", "140617.984000", "140617.984000", "140617.984000", "140618.000000", "140618.000000", "140618.000000", "140618.000000", "140618.000000", "140618.015000", "140618.015000", "140618.015000", "140618.015000", "140618.015000", "140657.968000", "140657.968000", "140657.984000", "140657.984000", "140657.984000", "140657.984000", "140657.984000", "140657.984000", "140658.000000", "140658.000000", "140658.000000", "140658.015000", "140658.015000", "140658.015000", "140658.015000", "140658.015000", "140658.015000", "140658.015000", "140658.015000", "140658.031000", "140737.968000", "140737.968000", "140737.968000", "140737.984000", "140737.984000", "140737.984000", "140737.984000", "140737.984000", "140737.984000", "140737.984000", "140737.984000", "140738.000000", "140738.000000", "140738.000000", "140738.000000", "140738.000000", "140738.015000", "140738.015000", "140738.015000", "140738.015000", "140817.968000", "140817.968000", "140817.984000", "140817.984000", "140817.984000", "140817.984000", "140817.984000", "140817.984000", "140818.000000", "140818.000000", "140818.000000", "140818.000000", "140818.000000", "140818.000000", "140818.000000", "140818.015000", "140818.015000", "140818.015000", "140818.015000", "140818.015000", "140857.968000", "140857.968000", "140857.984000", "140857.984000", "140857.984000", "140858.000000", "140858.000000", "140858.000000", "140858.000000", "140858.000000", "140858.000000", "140858.000000", "140858.015000", "140858.015000", "140858.015000", "140858.015000", "140858.015000", "140858.031000", "140858.031000", "140858.031000", "140917.968000", "140917.968000", "140917.984000", "140917.984000", "140917.984000", "140917.984000", "140917.984000", "140917.984000", "140917.984000", "140917.984000", "140957.968000", "140957.968000", "140957.984000", "140957.984000", "140957.984000", "140957.984000", "140957.984000", "140957.984000", "140957.984000", "140957.984000", "140958.000000", "140958.000000", "140958.000000", "140958.000000", "140958.000000", "140958.000000", "140958.000000", "140958.000000", "140958.015000", "140958.015000", "141008.671000", "141008.671000", "141008.671000", "141008.687000", "141008.687000", "141008.687000"],
      "InstanceNumber": [1, 2, 3, 4, 5, 6, 7, 8, 9, 10, 11, 12, 13, 14, 15, 16, 17, 18, 19, 20, 21, 22, 23, 24, 25, 26, 27, 28, 29, 30, 31, 32, 33, 34, 35, 36, 37, 38, 39, 40, 41, 42, 43, 44, 45, 46, 47, 48, 49, 50, 51, 52, 53, 54, 55, 56, 57, 58, 59, 60, 61, 62, 63, 64, 65, 66, 67, 68, 69, 70, 71, 72, 73, 74, 75, 76, 77, 78, 79, 80, 81, 82, 83, 84, 85, 86, 87, 88, 89, 90, 91, 92, 93, 94, 95, 96, 97, 98, 99, 100, 101, 102, 103, 104, 105, 106, 107, 108, 109, 110, 111, 112, 113, 114, 115, 116, 117, 118, 119, 120, 121, 122, 123, 124, 125, 126, 127, 128, 129, 130, 131, 132, 133, 134, 135, 136, 137, 138, 139, 140, 141, 142, 143, 144, 145, 146, 147, 148, 149, 150, 151, 152, 153, 154, 155, 156, 157, 158, 159, 160, 161, 162, 163, 164],
      "LargestImagePixelValue": [2126, 2040, 2019, 2029, 2012, 2072, 2063, 2149, 2244, 2037, 2015, 2301, 2034, 2038, 2027, 2037, 2107, 2020, 2028, 2141, 2004, 2024, 2047, 2027, 2037, 2039, 2020, 2020, 2025, 2004, 2017, 2010, 2000, 2013, 1998, 1987, 2228, 1997, 2002, 2018, 2001, 2015, 2013, 1994, 2302, 2327, 2002, 2013, 2000, 2005, 2198, 2007, 1984, 2012, 1994, 2014, 1988, 1992, 1980, 2228, 1993, 1988, 1972, 2075, 1961, 1963, 1965, 1979, 1965, 2016, 2006, 2166, 1976, 1969, 1987, 2026, 1955, 2019, 1945, 1973, 1982, 1969, 2006, 1976, 1976, 1991, 1953, 1984, 1994, 1984, 1980, 1945, 1970, 1968, 2435, 1970, 1946, 1953, 1999, 1976, 1964, 1955, 1951, 2086, 1944, 1956, 1954, 2197, 1956, 1945, 1957, 1966, 1966, 1969, 1970, 1973, 1978, 1981, 1959, 1970, 1964, 1966, 1978, 1985, 1975, 2000, 1964, 1982, 2000, 2000, 1996, 2006, 1981, 2002, 1997, 1998, 1976, 1976, 1995, 1993, 1987, 1991, 1998, 2010, 2010, 1998, 2019, 1995, 1982, 2007, 1996, 1972, 1989, 1984, 1994, 1989, 2005, 2005, 1985, 1993, 2003, 2012, 2029, 1987],
      "WindowCenter": [734.0, 732.0, 732.0, 732.0, 731.0, 730.0, 730.0, 730.0, 730.0, 728.0, 728.0, 728.0, 728.0, 727.0, 727.0, 727.0, 727.0, 727.0, 727.0, 727.0, 726.0, 727.0, 727.0, 727.0, 728.0, 728.0, 728.0, 727.0, 728.0, 728.0, 729.0, 728.0, 727.0, 726.0, 726.0, 726.0, 727.0, 727.0, 727.0, 728.0, 728.0, 728.0, 729.0, 728.0, 728.0, 727.0, 726.0, 726.0, 726.0, 727.0, 728.0, 727.0, 727.0, 728.0, 728.0, 728.0, 728.0, 727.0, 727.0, 728.0, 728.0, 727.0, 727.0, 727.0, 726.0, 726.0, 727.0, 728.0, 728.0, 728.0, 727.0, 727.0, 726.0, 726.0, 727.0, 727.0, 726.0, 726.0, 726.0, 727.0, 728.0, 727.0, 727.0, 727.0, 726.0, 727.0, 727.0, 727.0, 728.0, 728.0, 727.0, 726.0, 727.0, 727.0, 728.0, 726.0, 726.0, 727.0, 726.0, 726.0, 727.0, 727.0, 726.0, 726.0, 726.0, 727.0, 727.0, 727.0, 727.0, 727.0, 728.0, 727.0, 727.0, 727.0, 727.0, 728.0, 728.0, 728.0, 728.0, 727.0, 728.0, 727.0, 728.0, 728.0, 729.0, 729.0, 728.0, 727.0, 727.0, 728.0, 728.0, 728.0, 728.0, 728.0, 728.0, 726.0, 726.0, 727.0, 728.0, 728.0, 728.0, 728.0, 728.0, 726.0, 727.0, 728.0, 728.0, 728.0, 727.0, 728.0, 729.0, 729.0, 729.0, 729.0, 728.0, 729.0, 729.0, 730.0, 729.0, 729.0, 729.0, 729.0, 730.0, 730.0],
      "WindowWidth": [1619.0, 1613.0, 1615.0, 1613.0, 1609.0, 1607.0, 1607.0, 1608.0, 1609.0, 1603.0, 1600.0, 1602.0, 1602.0, 1599.0, 1599.0, 1599.0, 1598.0, 1597.0, 1597.0, 1598.0, 1597.0, 1599.0, 1599.0, 1599.0, 1601.0, 1602.0, 1600.0, 1600.0, 1603.0, 1603.0, 1603.0, 1602.0, 1599.0, 1595.0, 1595.0, 1597.0, 1600.0, 1598.0, 1598.0, 1600.0, 1603.0, 1603.0, 1604.0, 1601.0, 1601.0, 1600.0, 1594.0, 1595.0, 1597.0, 1598.0, 1601.0, 1598.0, 1598.0, 1601.0, 1600.0, 1601.0, 1600.0, 1599.0, 1599.0, 1602.0, 1601.0, 1599.0, 1598.0, 1598.0, 1596.0, 1596.0, 1597.0, 1602.0, 1601.0, 1600.0, 1597.0, 1599.0, 1595.0, 1596.0, 1597.0, 1597.0, 1594.0, 1595.0, 1594.0, 1598.0, 1600.0, 1598.0, 1598.0, 1597.0, 1596.0, 1597.0, 1597.0, 1599.0, 1602.0, 1601.0, 1598.0, 1595.0, 1596.0, 1597.0, 1601.0, 1595.0, 1595.0, 1597.0, 1595.0, 1596.0, 1597.0, 1598.0, 1595.0, 1595.0, 1596.0, 1598.0, 1597.0, 1600.0, 1598.0, 1598.0, 1600.0, 1598.0, 1597.0, 1597.0, 1599.0, 1600.0, 1599.0, 1600.0, 1599.0, 1599.0, 1600.0, 1599.0, 1600.0, 1601.0, 1603.0, 1603.0, 1602.0, 1598.0, 1599.0, 1600.0, 1601.0, 1602.0, 1602.0, 1600.0, 1599.0, 1595.0, 1595.0, 1597.0, 1599.0, 1602.0, 1601.0, 1601.0, 1599.0, 1595.0, 1597.0, 1602.0, 1601.0, 1599.0, 1598.0, 1601.0, 1604.0, 1604.0, 1604.0, 1602.0, 1601.0, 1603.0, 1605.0, 1605.0, 1604.0, 1602.0, 1603.0, 1604.0, 1606.0, 1606.0]
    },
    "slices": {}
  }
}