{
  "AcquisitionMatrixPE": 64,
  "AcquisitionNumber": 1,
  "AcquisitionTime": "13:51:18.182500",
  "BandwidthPerPixelPhaseEncode": 33.967,
  "BaseResolution": 64,
  "CoilCombinationMethod": "Sum of Squares",
  "CoilString": "C:HEA;HEP",
  "ConversionSoftware": "dcm2niix",
  "ConversionSoftwareVersion": "v1.0.20220720",
  "DerivedVendorReportedEchoSpacing": 0.000460005,
  "DeviceSerialNumber": "35193",
  "DwellTime": 3.1e-06,
  "EchoTime": 0.03,
  "EffectiveEchoSpacing": 0.000460005,
  "FlipAngle": 90,
  "HeudiconvVersion": "1.1.6",
  "ImageOrientationPatientDICOM": [0.99726, -0.0104718, -0.0732342, 0.0104437, 0.999945, -0.000766933],
  "ImageOrientationText": "Tra>Sag(-4.2)",
  "ImageType": [
    "ORIGINAL",
    "PRIMARY",
    "M",
    "ND",
    "MOSAIC"
],
  "ImagingFrequency": 123.254,
  "InPlanePhaseEncodingDirectionDICOM": "COL",
  "InstitutionAddress": "Xinjiekouwai Street No 19,Beijing,Haidian District,CN,100875",
  "InstitutionName": "BNU MRI Center",
  "InstitutionalDepartmentName": "Department",
  "MRAcquisitionType": "2D",
  "MagneticFieldStrength": 3,
  "Manufacturer": "Siemens",
  "ManufacturersModelName": "TrioTim",
  "MatrixCoilMode": "SENSE",
  "Modality": "MR",
  "NonlinearGradientCorrection": false,
  "PartialFourier": 1,
  "PatientPosition": "HFS",
  "PercentPhaseFOV": 100,
  "PercentSampling": 100,
  "PhaseEncodingDirection": "j-",
  "PhaseEncodingSteps": 64,
  "PhaseResolution": 1,
  "PixelBandwidth": 2520,
  "ProcedureStepDescription": "BNU_cst_2015^Guo.TaoMei",
  "ProtocolName": "ge_func_3x3x4_164",
  "PulseSequenceDetails": "%SiemensSeq%\\ep2d_bold",
  "ReceiveCoilName": "HeadMatrix",
  "ReconMatrixPE": 64,
  "RepetitionTime": 2,
  "SAR": 0.132813,
  "ScanOptions": "FS",
  "ScanningSequence": "EP",
  "SequenceName": "*epfid2d1_64",
  "SequenceVariant": "SK",
  "SeriesDescription": "ge_func_3x3x4_164",
  "SeriesNumber": 3,
  "ShimSetting": [-4538, -19431, -10013, 918, -103, -526, 59, 36],
  "SliceThickness": 4,
  "SliceTiming": [0, 1.0325, 0.06, 1.095, 0.12, 1.155, 0.1825, 1.215, 0.2425, 1.2775, 0.3025, 1.3375, 0.365, 1.3975, 0.425, 1.46, 0.485, 1.52, 0.5475, 1.58, 0.6075, 1.6425, 0.6675, 1.7025, 0.73, 1.7625, 0.79, 1.825, 0.85, 1.885, 0.9125, 1.945, 0.9725],
  "SoftwareVersions": "syngo MR B17",
  "SpacingBetweenSlices": 4.6,
  "StationName": "MRC35193",
  "TaskName": "CognitiveControl",
  "TotalReadoutTime": 0.0289803,
  "TxRefAmp": 321.751,
  "dcmmeta_affine": [
    [-3.1164369583129883, 0.03263644129037857, -0.3368957042694092, 101.40582275390625],
    [0.032724324613809586, 3.124828577041626, 7.492674924947096e-09, -89.82048034667969],
    [-0.22885681688785553, 0.0023966655135154724, 4.587646484375, -68.17790985107422],
    [0.0, 0.0, 0.0, 1.0]
],
  "dcmmeta_reorient_transform": [
    [0.0, -1.0, 0.0, 63.0],
    [1.0, 0.0, 0.0, 0.0],
    [0.0, 0.0, 1.0, 0.0],
    [0.0, 0.0, 0.0, 1.0]
],
  "dcmmeta_shape": [64, 64, 33, 164],
  "dcmmeta_slice_dim": 2,
  "dcmmeta_version": 0.6,
  "global": {
    "const": {
      "AcquisitionMatrix": [64, 0, 0, 64],
      "AngioFlag": "N",
      "BitsAllocated": 16,
      "BitsStored": 12,
      "Columns": 384,
      "EchoNumbers": 1,
      "EchoTime": 30.0,
      "EchoTrainLength": 1,
      "FlipAngle": 90.0,
      "HighBit": 11,
      "ImageOrientationPatient": [0.99725979374479, -0.0104717835135, -0.0732341827984, 0.01044366141863, 0.99994516937182, -0.000766932935],
      "ImagePositionPatient": [-607.31364385687, -601.7804174708, -31.026363030656],
      "ImageType": [
        "ORIGINAL",
        "PRIMARY",
        "M",
        "ND",
        "MOSAIC"
],
      "ImagedNucleus": "1H",
      "ImagingFrequency": 123.254019,
      "InPlanePhaseEncodingDirection": "COL",
      "MRAcquisitionType": "2D",
      "MagneticFieldStrength": 3.0,
      "Manufacturer": "SIEMENS",
      "ManufacturerModelName": "TrioTim",
      "Modality": "MR",
      "NumberOfAverages": 1.0,
      "NumberOfPhaseEncodingSteps": 64,
      "PercentPhaseFieldOfView": 100.0,
      "PercentSampling": 100.0,
      "PerformedProcedureStepStartTime": "134145.875000",
      "PhotometricInterpretation": "MONOCHROME2",
      "PixelBandwidth": 2520.0,
      "PixelRepresentation": 0,
      "PixelSpacing": [3.125, 3.125],
      "ProtocolName": "ge_func_3x3x4_164",
      "RepetitionTime": 2000.0,
      "Rows": 384,
      "SAR": 0.13281337529373,
      "SamplesPerPixel": 1,
      "ScanOptions": "FS",
      "ScanningSequence": "EP",
      "SequenceName": "*epfid2d1_64",
      "SequenceVariant": "SK",
      "SeriesDescription": "ge_func_3x3x4_164",
      "SeriesNumber": 3,
      "SeriesTime": "135207.890000",
      "SliceLocation": -75.421597229897,
      "SliceThickness": 4.0,
      "SmallestImagePixelValue": 0,
      "SoftwareVersions": "syngo MR B17",
      "SpacingBetweenSlices": 4.5999998903471,
      "SpecificCharacterSet": "ISO_IR 100",
      "StudyID": "1",
      "StudyTime": "134145.796000",
      "TransmitCoilName": "Body",
      "VariableFlipAngleFlag": "N",
      "WindowCenterWidthExplanation": "Algo1",
      "dBdt": 0.0},
    "slices": {}
  },
  "time": {
    "samples": {
      "AcquisitionNumber": [1, 2, 3, 4, 5, 6, 7, 8, 9, 10, 11, 12, 13, 14, 15, 16, 17, 18, 19, 20, 21, 22, 23, 24, 25, 26, 27, 28, 29, 30, 31, 32, 33, 34, 35, 36, 37, 38, 39, 40, 41, 42, 43, 44, 45, 46, 47, 48, 49, 50, 51, 52, 53, 54, 55, 56, 57, 58, 59, 60, 61, 62, 63, 64, 65, 66, 67, 68, 69, 70, 71, 72, 73, 74, 75, 76, 77, 78, 79, 80, 81, 82, 83, 84, 85, 86, 87, 88, 89, 90, 91, 92, 93, 94, 95, 96, 97, 98, 99, 100, 101, 102, 103, 104, 105, 106, 107, 108, 109, 110, 111, 112, 113, 114, 115, 116, 117, 118, 119, 120, 121, 122, 123, 124, 125, 126, 127, 128, 129, 130, 131, 132, 133, 134, 135, 136, 137, 138, 139, 140, 141, 142, 143, 144, 145, 146, 147, 148, 149, 150, 151, 152, 153, 154, 155, 156, 157, 158, 159, 160, 161, 162, 163, 164],
      "AcquisitionTime": ["135118.182500", "135120.190000", "135122.197500", "135124.205000", "135126.215000", "135128.222500", "135130.230000", "135132.237500", "135134.245000", "135136.255000", "135138.262500", "135140.270000", "135142.277500", "135144.285000", "135146.295000", "135148.302500", "135150.310000", "135152.317500", "135154.325000", "135156.335000", "135158.342500", "135200.350000", "135202.357500", "135204.367500", "135206.375000", "135208.382500", "135210.390000", "135212.397500", "135214.407500", "135216.415000", "135218.422500", "135220.430000", "135222.437500", "135224.447500", "135226.455000", "135228.462500", "135230.470000", "135232.480000", "135234.487500", "135236.495000", "135238.502500", "135240.510000", "135242.520000", "135244.527500", "135246.535000", "135248.542500", "135250.550000", "135252.560000", "135254.567500", "135256.575000", "135258.582500", "135300.592500", "135302.600000", "135304.607500", "135306.615000", "135308.622500", "135310.632500", "135312.640000", "135314.647500", "135316.655000", "135318.662500", "135320.672500", "135322.680000", "135324.687500", "135326.695000", "135328.702500", "135330.712500", "135332.720000", "135334.727500", "135336.735000", "135338.745000", "135340.752500", "135342.760000", "135344.767500", "135346.775000", "135348.785000", "135350.792500", "135352.800000", "135354.807500", "135356.815000", "135358.825000", "135400.832500", "135402.840000", "135404.847500", "135406.857500", "135408.865000", "135410.872500", "135412.880000", "135414.887500", "135416.897500", "135418.905000", "135420.912500", "135422.920000", "135424.927500", "135426.937500", "135428.945000", "135430.952500", "135432.960000", "135434.970000", "135436.977500", "135438.985000", "135440.992500", "135443.000000", "135445.010000", "135447.017500", "135449.025000", "135451.032500", "135453.040000", "135455.050000", "135457.057500", "135459.065000", "135501.072500", "135503.080000", "135505.090000", "135507.097500", "135509.105000", "135511.112500", "135513.122500", "135515.130000", "135517.137500", "135519.145000", "135521.152500", "135523.162500", "135525.170000", "135527.177500", "135529.185000", "135531.192500", "135533.202500", "135535.210000", "135537.217500", "135539.225000", "135541.235000", "135543.242500", "135545.250000", "135547.257500", "135549.265000", "135551.275000", "135553.282500", "135555.290000", "135557.297500", "135559.305000", "135601.315000", "135603.322500", "135605.330000", "135607.337500", "135609.347500", "135611.355000", "135613.362500", "135615.370000", "135617.377500", "135619.387500", "135621.395000", "135623.402500", "135625.410000", "135627.417500", "135629.427500", "135631.435000", "135633.442500", "135635.450000", "135637.457500", "135639.467500", "135641.475000", "135643.482500", "135645.490000"],
      "ContentTime": ["135207.906000", "135207.906000", "135207.906000", "135207.906000", "135207.906000", "135207.921000", "135207.921000", "135207.921000", "135207.937000", "135207.937000", "135207.937000", "135207.937000", "135207.937000", "135207.937000", "135207.953000", "135207.953000", "135207.953000", "135207.953000", "135207.953000", "135207.953000", "135207.968000", "135207.968000", "135207.968000", "135207.968000", "135247.890000", "135247.890000", "135247.906000", "135247.906000", "135247.906000", "135247.906000", "135247.906000", "135247.906000", "135247.906000", "135247.906000", "135247.921000", "135247.921000", "135247.921000", "135247.921000", "135247.921000", "135247.921000", "135247.921000", "135247.921000", "135247.937000", "135247.937000", "135327.890000", "135327.890000", "135327.906000", "135327.906000", "135327.906000", "135327.906000", "135327.906000", "135327.921000", "135327.921000", "135327.921000", "135327.937000", "135327.937000", "135327.953000", "135327.953000", "135327.953000", "135327.953000", "135327.953000", "135327.953000", "135327.953000", "135327.953000", "135407.890000", "135407.890000", "135407.906000", "135407.906000", "135407.906000", "135407.906000", "135407.906000", "135407.921000", "135407.921000", "135407.921000", "135407.921000", "135407.921000", "135407.921000", "135407.921000", "135407.937000", "135407.937000", "135407.937000", "135407.937000", "135407.953000", "135407.953000", "135447.890000", "135447.890000", "135447.906000", "135447.921000", "135447.921000", "135447.921000", "135447.921000", "135447.921000", "135447.921000", "135447.921000", "135447.921000", "135447.937000", "135447.937000", "135447.937000", "135447.937000", "135447.953000", "135447.953000", "135447.953000", "135447.953000", "135447.953000", "135527.890000", "135527.890000", "135527.906000", "135527.906000", "135527.906000", "135527.906000", "135527.906000", "135527.921000", "135527.921000", "135527.921000", "135527.921000", "135527.921000", "135527.921000", "135527.921000", "135527.937000", "135527.937000", "135527.937000", "135527.937000", "135527.937000", "135527.937000", "135607.890000", "135607.890000", "135607.906000", "135607.906000", "135607.906000", "135607.906000", "135607.921000", "135607.921000", "135607.921000", "135607.937000", "135607.937000", "135607.937000", "135607.937000", "135607.937000", "135607.937000", "135607.937000", "135607.937000", "135607.953000", "135607.953000", "135607.953000", "135647.140000", "135647.140000", "135647.156000", "135647.156000", "135647.156000", "135647.156000", "135647.156000", "135647.156000", "135647.156000", "135647.171000", "135647.171000", "135647.171000", "135647.171000", "135647.171000", "135647.171000", "135647.187000", "135647.187000", "135647.187000", "135647.187000", "135647.187000"],
      "InstanceCreationTime": ["135207.906000", "135207.906000", "135207.906000", "135207.906000", "135207.906000", "135207.921000", "135207.921000", "135207.921000", "135207.937000", "135207.937000", "135207.937000", "135207.937000", "135207.937000", "135207.937000", "135207.953000", "135207.953000", "135207.953000", "135207.953000", "135207.953000", "135207.953000", "135207.968000", "135207.968000", "135207.968000", "135207.968000", "135247.890000", "135247.890000", "135247.906000", "135247.906000", "135247.906000", "135247.906000", "135247.906000", "135247.906000", "135247.906000", "135247.906000", "135247.921000", "135247.921000", "135247.921000", "135247.921000", "135247.921000", "135247.921000", "135247.921000", "135247.921000", "135247.937000", "135247.937000", "135327.890000", "135327.890000", "135327.906000", "135327.906000", "135327.906000", "135327.906000", "135327.906000", "135327.921000", "135327.921000", "135327.921000", "135327.937000", "135327.937000", "135327.953000", "135327.953000", "135327.953000", "135327.953000", "135327.953000", "135327.953000", "135327.953000", "135327.953000", "135407.890000", "135407.890000", "135407.906000", "135407.906000", "135407.906000", "135407.906000", "135407.906000", "135407.921000", "135407.921000", "135407.921000", "135407.921000", "135407.921000", "135407.921000", "135407.921000", "135407.937000", "135407.937000", "135407.937000", "135407.937000", "135407.953000", "135407.953000", "135447.890000", "135447.890000", "135447.906000", "135447.921000", "135447.921000", "135447.921000", "135447.921000", "135447.921000", "135447.921000", "135447.921000", "135447.921000", "135447.937000", "135447.937000", "135447.937000", "135447.937000", "135447.953000", "135447.953000", "135447.953000", "135447.953000", "135447.953000", "135527.890000", "135527.890000", "135527.906000", "135527.906000", "135527.906000", "135527.906000", "135527.906000", "135527.921000", "135527.921000", "135527.921000", "135527.921000", "135527.921000", "135527.921000", "135527.921000", "135527.937000", "135527.937000", "135527.937000", "135527.937000", "135527.937000", "135527.937000", "135607.890000", "135607.890000", "135607.906000", "135607.906000", "135607.906000", "135607.906000", "135607.921000", "135607.921000", "135607.921000", "135607.937000", "135607.937000", "135607.937000", "135607.937000", "135607.937000", "135607.937000", "135607.937000", "135607.937000", "135607.953000", "135607.953000", "135607.953000", "135647.140000", "135647.140000", "135647.156000", "135647.156000", "135647.156000", "135647.156000", "135647.156000", "135647.156000", "135647.156000", "135647.171000", "135647.171000", "135647.171000", "135647.171000", "135647.171000", "135647.171000", "135647.187000", "135647.187000", "135647.187000", "135647.187000", "135647.187000"],
      "InstanceNumber": [1, 2, 3, 4, 5, 6, 7, 8, 9, 10, 11, 12, 13, 14, 15, 16, 17, 18, 19, 20, 21, 22, 23, 24, 25, 26, 27, 28, 29, 30, 31, 32, 33, 34, 35, 36, 37, 38, 39, 40, 41, 42, 43, 44, 45, 46, 47, 48, 49, 50, 51, 52, 53, 54, 55, 56, 57, 58, 59, 60, 61, 62, 63, 64, 65, 66, 67, 68, 69, 70, 71, 72, 73, 74, 75, 76, 77, 78, 79, 80, 81, 82, 83, 84, 85, 86, 87, 88, 89, 90, 91, 92, 93, 94, 95, 96, 97, 98, 99, 100, 101, 102, 103, 104, 105, 106, 107, 108, 109, 110, 111, 112, 113, 114, 115, 116, 117, 118, 119, 120, 121, 122, 123, 124, 125, 126, 127, 128, 129, 130, 131, 132, 133, 134, 135, 136, 137, 138, 139, 140, 141, 142, 143, 144, 145, 146, 147, 148, 149, 150, 151, 152, 153, 154, 155, 156, 157, 158, 159, 160, 161, 162, 163, 164],
      "LargestImagePixelValue": [2064, 2006, 1990, 1996, 1986, 1982, 2009, 1983, 1970, 1973, 2006, 2005, 1981, 1988, 1987, 1987, 2028, 1988, 1993, 1975, 2006, 1991, 1980, 1989, 1990, 2005, 2049, 1976, 2004, 1997, 1989, 1990, 1977, 2002, 1984, 1971, 1981, 1987, 1987, 1984, 1975, 1996, 1994, 1994, 1968, 1988, 1992, 1984, 1975, 1968, 1990, 2007, 2008, 1994, 1977, 1976, 2000, 1998, 1979, 1971, 2001, 2000, 1977, 1980, 2004, 1989, 1991, 1937, 1977, 1988, 1977, 1961, 2003, 1999, 1990, 1995, 1994, 1994, 1976, 2000, 2150, 1988, 2013, 1985, 1986, 2011, 1988, 2003, 1973, 2020, 1980, 1977, 1991, 1989, 1997, 1982, 1951, 1955, 2005, 1989, 1977, 1981, 2013, 1996, 1966, 1966, 1971, 1955, 1950, 1948, 1995, 1972, 1945, 1949, 1977, 1974, 1992, 1969, 1960, 1976, 1977, 1993, 1962, 1949, 1958, 1978, 1976, 2097, 1963, 1958, 1967, 1977, 1937, 1939, 1942, 1951, 1966, 1966, 1961, 1964, 2189, 1948, 1964, 1950, 1949, 1946, 1943, 1953, 1945, 1960, 1957, 1936, 1961, 1937, 1928, 1923, 1928, 1946, 1952, 1926, 1945, 1937, 1932, 1947],
      "WindowCenter": [733.0, 730.0, 730.0, 730.0, 729.0, 729.0, 728.0, 728.0, 729.0, 729.0, 729.0, 729.0, 728.0, 728.0, 728.0, 729.0, 729.0, 729.0, 729.0, 729.0, 730.0, 730.0, 730.0, 730.0, 730.0, 731.0, 730.0, 730.0, 730.0, 730.0, 729.0, 730.0, 730.0, 730.0, 730.0, 730.0, 730.0, 730.0, 730.0, 730.0, 730.0, 731.0, 731.0, 731.0, 730.0, 731.0, 731.0, 731.0, 731.0, 730.0, 730.0, 730.0, 730.0, 730.0, 730.0, 730.0, 730.0, 730.0, 730.0, 731.0, 731.0, 731.0, 731.0, 731.0, 731.0, 730.0, 730.0, 731.0, 731.0, 731.0, 731.0, 731.0, 731.0, 730.0, 731.0, 730.0, 730.0, 731.0, 731.0, 731.0, 731.0, 730.0, 730.0, 730.0, 731.0, 731.0, 731.0, 730.0, 730.0, 731.0, 730.0, 731.0, 731.0, 731.0, 731.0, 731.0, 732.0, 731.0, 731.0, 731.0, 731.0, 731.0, 730.0, 730.0, 731.0, 731.0, 732.0, 732.0, 732.0, 732.0, 731.0, 731.0, 731.0, 731.0, 731.0, 730.0, 730.0, 730.0, 730.0, 730.0, 730.0, 731.0, 731.0, 732.0, 732.0, 732.0, 731.0, 732.0, 732.0, 732.0, 732.0, 732.0, 732.0, 732.0, 732.0, 732.0, 732.0, 732.0, 732.0, 732.0, 731.0, 730.0, 731.0, 730.0, 731.0, 731.0, 731.0, 731.0, 731.0, 731.0, 731.0, 731.0, 731.0, 731.0, 732.0, 732.0, 732.0, 731.0, 731.0, 731.0, 731.0, 731.0, 731.0, 731.0],
      "WindowWidth": [1617.0, 1608.0, 1606.0, 1606.0, 1604.0, 1603.0, 1601.0, 1601.0, 1603.0, 1605.0, 1605.0, 1603.0, 1602.0, 1602.0, 1602.0, 1604.0, 1605.0, 1606.0, 1606.0, 1606.0, 1607.0, 1607.0, 1608.0, 1608.0, 1609.0, 1609.0, 1609.0, 1607.0, 1608.0, 1606.0, 1605.0, 1607.0, 1607.0, 1608.0, 1606.0, 1607.0, 1608.0, 1608.0, 1608.0, 1608.0, 1609.0, 1610.0, 1610.0, 1609.0, 1609.0, 1610.0, 1609.0, 1610.0, 1610.0, 1608.0, 1608.0, 1607.0, 1606.0, 1606.0, 1608.0, 1608.0, 1608.0, 1608.0, 1608.0, 1610.0, 1610.0, 1611.0, 1611.0, 1610.0, 1609.0, 1608.0, 1608.0, 1609.0, 1611.0, 1609.0, 1609.0, 1609.0, 1609.0, 1608.0, 1610.0, 1608.0, 1607.0, 1609.0, 1610.0, 1610.0, 1611.0, 1608.0, 1608.0, 1607.0, 1609.0, 1610.0, 1610.0, 1608.0, 1608.0, 1609.0, 1608.0, 1609.0, 1610.0, 1610.0, 1610.0, 1610.0, 1611.0, 1610.0, 1609.0, 1608.0, 1609.0, 1609.0, 1606.0, 1606.0, 1609.0, 1610.0, 1612.0, 1612.0, 1612.0, 1612.0, 1611.0, 1610.0, 1610.0, 1610.0, 1609.0, 1607.0, 1607.0, 1607.0, 1608.0, 1608.0, 1608.0, 1610.0, 1612.0, 1612.0, 1613.0, 1612.0, 1611.0, 1613.0, 1612.0, 1613.0, 1613.0, 1613.0, 1613.0, 1613.0, 1612.0, 1613.0, 1613.0, 1613.0, 1614.0, 1612.0, 1611.0, 1608.0, 1609.0, 1608.0, 1609.0, 1611.0, 1610.0, 1610.0, 1611.0, 1611.0, 1611.0, 1610.0, 1611.0, 1611.0, 1612.0, 1613.0, 1612.0, 1610.0, 1611.0, 1610.0, 1610.0, 1609.0, 1611.0, 1611.0]
    },
    "slices": {}
  }
}