{
  "AcquisitionMatrixPE": 64,
  "AcquisitionNumber": 1,
  "AcquisitionTime": "13:24:45.977500",
  "BandwidthPerPixelPhaseEncode": 33.967,
  "BaseResolution": 64,
  "CoilCombinationMethod": "Sum of Squares",
  "CoilString": "C:HEA;HEP",
  "ConversionSoftware": "dcm2niix",
  "ConversionSoftwareVersion": "v1.0.20220720",
  "DerivedVendorReportedEchoSpacing": 0.000460005,
  "DeviceSerialNumber": "35193",
  "DwellTime": 3.1e-06,
  "EchoTime": 0.03,
  "EffectiveEchoSpacing": 0.000460005,
  "FlipAngle": 90,
  "HeudiconvVersion": "1.1.6",
  "ImageOrientationPatientDICOM": [0.998403, -0.00872654, -0.0558194, 0.00871293, 0.999962, -0.000487128],
  "ImageOrientationText": "Tra>Sag(-3.2)",
  "ImageType": [
    "ORIGINAL",
    "PRIMARY",
    "M",
    "ND",
    "MOSAIC"
],
  "ImagingFrequency": 123.254,
  "InPlanePhaseEncodingDirectionDICOM": "COL",
  "InstitutionAddress": "Xinjiekouwai Street No 19,Beijing,Haidian District,CN,100875",
  "InstitutionName": "Beijing Normal Universtiy/5777c4/",
  "InstitutionalDepartmentName": "Department",
  "MRAcquisitionType": "2D",
  "MagneticFieldStrength": 3,
  "Manufacturer": "Siemens",
  "ManufacturersModelName": "TrioTim",
  "MatrixCoilMode": "SENSE",
  "Modality": "MR",
  "NonlinearGradientCorrection": false,
  "PartialFourier": 1,
  "PatientPosition": "HFS",
  "PercentPhaseFOV": 100,
  "PercentSampling": 100,
  "PhaseEncodingDirection": "j-",
  "PhaseEncodingSteps": 64,
  "PhaseResolution": 1,
  "PixelBandwidth": 2520,
  "ProcedureStepDescription": "BNU_cst_2015^Guo.TaoMei",
  "ProtocolName": "ge_func_3x3x4_164",
  "PulseSequenceDetails": "%SiemensSeq%\\ep2d_bold",
  "ReceiveCoilName": "HeadMatrix",
  "ReconMatrixPE": 64,
  "RepetitionTime": 2,
  "SAR": 0.126984,
  "ScanOptions": "FS",
  "ScanningSequence": "EP",
  "SequenceName": "*epfid2d1_64",
  "SequenceVariant": "SK",
  "SeriesDescription": "ge_func_3x3x4_164",
  "SeriesNumber": 5,
  "ShimSetting": [-4558, -19425, -9852, 974, 6, -300, -42, 153],
  "SliceThickness": 4,
  "SliceTiming": [0, 1.0325, 0.06, 1.095, 0.12, 1.155, 0.1825, 1.215, 0.2425, 1.2775, 0.3025, 1.3375, 0.365, 1.3975, 0.425, 1.46, 0.485, 1.52, 0.5475, 1.58, 0.6075, 1.6425, 0.6675, 1.7025, 0.73, 1.7625, 0.79, 1.825, 0.85, 1.885, 0.9125, 1.945, 0.9725],
  "SoftwareVersions": "syngo MR B17",
  "SpacingBetweenSlices": 4.6,
  "StationName": "MRC35193",
  "TaskName": "LanguageControl",
  "TotalReadoutTime": 0.0289803,
  "TxRefAmp": 314.27,
  "dcmmeta_affine": [
    [-3.1200084686279297, 0.02722790651023388, -0.25677892565727234, 103.10467529296875],
    [0.027270426973700523, 3.1248810291290283, 2.8389507411574755e-10, -84.92469024658203],
    [-0.174435555934906, 0.0015222760848701, 4.592827320098877, -57.155311584472656],
    [0.0, 0.0, 0.0, 1.0]
],
  "dcmmeta_reorient_transform": [
    [0.0, -1.0, 0.0, 63.0],
    [1.0, 0.0, 0.0, 0.0],
    [0.0, 0.0, 1.0, 0.0],
    [0.0, 0.0, 0.0, 1.0]
],
  "dcmmeta_shape": [64, 64, 33, 164],
  "dcmmeta_slice_dim": 2,
  "dcmmeta_version": 0.6,
  "global": {
    "const": {
      "AcquisitionMatrix": [64, 0, 0, 64],
      "AngioFlag": "N",
      "BitsAllocated": 16,
      "BitsStored": 12,
      "Columns": 384,
      "EchoNumbers": 1,
      "EchoTime": 30.0,
      "EchoTrainLength": 1,
      "FlipAngle": 90.0,
      "HighBit": 11,
      "ImageOrientationPatient": [0.99840274658839, -0.008726536836, -0.0558193797852, 0.00871293011051, 0.9999619230525, -0.0004871283606],
      "ImagePositionPatient": [-608.37786882986, -607.56050853958, -28.906154774375],
      "ImageType": [
        "ORIGINAL",
        "PRIMARY",
        "M",
        "ND",
        "MOSAIC"
],
      "ImagedNucleus": "1H",
      "ImagingFrequency": 123.253921,
      "InPlanePhaseEncodingDirection": "COL",
      "MRAcquisitionType": "2D",
      "MagneticFieldStrength": 3.0,
      "Manufacturer": "SIEMENS",
      "ManufacturerModelName": "TrioTim",
      "Modality": "MR",
      "NumberOfAverages": 1.0,
      "NumberOfPhaseEncodingSteps": 64,
      "PercentPhaseFieldOfView": 100.0,
      "PercentSampling": 100.0,
      "PerformedProcedureStepStartTime": "125651.265000",
      "PhotometricInterpretation": "MONOCHROME2",
      "PixelBandwidth": 2520.0,
      "PixelRepresentation": 0,
      "PixelSpacing": [3.125, 3.125],
      "ProtocolName": "ge_func_3x3x4_164",
      "RepetitionTime": 2000.0,
      "Rows": 384,
      "SAR": 0.12698424690719,
      "SamplesPerPixel": 1,
      "ScanOptions": "FS",
      "ScanningSequence": "EP",
      "SequenceName": "*epfid2d1_64",
      "SequenceVariant": "SK",
      "SeriesDescription": "ge_func_3x3x4_164",
      "SeriesNumber": 5,
      "SeriesTime": "132538.484000",
      "SliceLocation": -62.821651652091,
      "SliceThickness": 4.0,
      "SmallestImagePixelValue": 0,
      "SoftwareVersions": "syngo MR B17",
      "SpacingBetweenSlices": 4.5999999243395,
      "SpecificCharacterSet": "ISO_IR 100",
      "StudyID": "1",
      "StudyTime": "125651.218000",
      "TransmitCoilName": "Body",
      "VariableFlipAngleFlag": "N",
      "WindowCenterWidthExplanation": "Algo1",
      "dBdt": 0.0},
    "slices": {}
  },
  "time": {
    "samples": {
      "AcquisitionNumber": [1, 2, 3, 4, 5, 6, 7, 8, 9, 10, 11, 12, 13, 14, 15, 16, 17, 18, 19, 20, 21, 22, 23, 24, 25, 26, 27, 28, 29, 30, 31, 32, 33, 34, 35, 36, 37, 38, 39, 40, 41, 42, 43, 44, 45, 46, 47, 48, 49, 50, 51, 52, 53, 54, 55, 56, 57, 58, 59, 60, 61, 62, 63, 64, 65, 66, 67, 68, 69, 70, 71, 72, 73, 74, 75, 76, 77, 78, 79, 80, 81, 82, 83, 84, 85, 86, 87, 88, 89, 90, 91, 92, 93, 94, 95, 96, 97, 98, 99, 100, 101, 102, 103, 104, 105, 106, 107, 108, 109, 110, 111, 112, 113, 114, 115, 116, 117, 118, 119, 120, 121, 122, 123, 124, 125, 126, 127, 128, 129, 130, 131, 132, 133, 134, 135, 136, 137, 138, 139, 140, 141, 142, 143, 144, 145, 146, 147, 148, 149, 150, 151, 152, 153, 154, 155, 156, 157, 158, 159, 160, 161, 162, 163, 164],
      "AcquisitionTime": ["132445.977500", "132447.985000", "132449.992500", "132452.000000", "132454.007500", "132456.017500", "132458.025000", "132500.032500", "132502.040000", "132504.047500", "132506.057500", "132508.065000", "132510.072500", "132512.080000", "132514.090000", "132516.097500", "132518.105000", "132520.112500", "132522.120000", "132524.130000", "132526.137500", "132528.145000", "132530.152500", "132532.160000", "132534.170000", "132536.177500", "132538.185000", "132540.192500", "132542.200000", "132544.210000", "132546.217500", "132548.225000", "132550.232500", "132552.242500", "132554.250000", "132556.257500", "132558.265000", "132600.272500", "132602.282500", "132604.290000", "132606.297500", "132608.305000", "132610.312500", "132612.322500", "132614.330000", "132616.337500", "132618.345000", "132620.355000", "132622.362500", "132624.370000", "132626.377500", "132628.385000", "132630.395000", "132632.402500", "132634.410000", "132636.417500", "132638.425000", "132640.435000", "132642.442500", "132644.450000", "132646.457500", "132648.467500", "132650.475000", "132652.482500", "132654.490000", "132656.497500", "132658.507500", "132700.515000", "132702.522500", "132704.530000", "132706.537500", "132708.547500", "132710.555000", "132712.562500", "132714.570000", "132716.580000", "132718.587500", "132720.595000", "132722.602500", "132724.610000", "132726.620000", "132728.627500", "132730.635000", "132732.642500", "132734.650000", "132736.660000", "132738.667500", "132740.675000", "132742.682500", "132744.690000", "132746.700000", "132748.707500", "132750.715000", "132752.722500", "132754.732500", "132756.740000", "132758.747500", "132800.755000", "132802.762500", "132804.772500", "132806.780000", "132808.787500", "132810.795000", "132812.802500", "132814.812500", "132816.820000", "132818.827500", "132820.835000", "132822.845000", "132824.852500", "132826.860000", "132828.867500", "132830.875000", "132832.885000", "132834.892500", "132836.900000", "132838.907500", "132840.915000", "132842.925000", "132844.932500", "132846.940000", "132848.947500", "132850.957500", "132852.965000", "132854.972500", "132856.980000", "132858.987500", "132900.997500", "132903.005000", "132905.012500", "132907.020000", "132909.027500", "132911.037500", "132913.045000", "132915.052500", "132917.060000", "132919.067500", "132921.077500", "132923.085000", "132925.092500", "132927.100000", "132929.110000", "132931.117500", "132933.125000", "132935.132500", "132937.140000", "132939.150000", "132941.157500", "132943.165000", "132945.172500", "132947.180000", "132949.190000", "132951.197500", "132953.205000", "132955.212500", "132957.222500", "132959.230000", "133001.237500", "133003.245000", "133005.252500", "133007.262500", "133009.270000", "133011.277500", "133013.285000"],
      "ContentTime": ["132538.484000", "132538.500000", "132538.500000", "132538.500000", "132538.500000", "132538.500000", "132538.500000", "132538.500000", "132538.500000", "132538.515000", "132538.515000", "132538.515000", "132538.515000", "132538.515000", "132538.531000", "132538.531000", "132538.531000", "132538.531000", "132538.531000", "132538.531000", "132538.531000", "132538.546000", "132538.546000", "132538.546000", "132538.546000", "132618.484000", "132618.484000", "132618.484000", "132618.484000", "132618.484000", "132618.500000", "132618.500000", "132618.500000", "132618.500000", "132618.500000", "132618.500000", "132618.500000", "132618.500000", "132618.515000", "132618.515000", "132618.515000", "132618.515000", "132618.515000", "132618.515000", "132618.515000", "132658.484000", "132658.484000", "132658.484000", "132658.484000", "132658.500000", "132658.500000", "132658.500000", "132658.500000", "132658.515000", "132658.515000", "132658.515000", "132658.515000", "132658.515000", "132658.531000", "132658.531000", "132658.531000", "132658.531000", "132658.531000", "132658.531000", "132658.531000", "132738.484000", "132738.484000", "132738.484000", "132738.484000", "132738.484000", "132738.500000", "132738.500000", "132738.500000", "132738.500000", "132738.500000", "132738.500000", "132738.500000", "132738.515000", "132738.515000", "132738.515000", "132738.515000", "132738.531000", "132738.531000", "132738.531000", "132738.531000", "132818.484000", "132818.484000", "132818.484000", "132818.500000", "132818.500000", "132818.500000", "132818.500000", "132818.500000", "132818.515000", "132818.515000", "132818.515000", "132818.515000", "132818.531000", "132818.531000", "132818.531000", "132818.531000", "132818.531000", "132818.531000", "132818.531000", "132818.546000", "132858.484000", "132858.484000", "132858.484000", "132858.484000", "132858.500000", "132858.500000", "132858.500000", "132858.500000", "132858.515000", "132858.515000", "132858.515000", "132858.515000", "132858.515000", "132858.515000", "132858.515000", "132858.515000", "132858.531000", "132858.531000", "132858.531000", "132858.531000", "132938.484000", "132938.484000", "132938.484000", "132938.484000", "132938.484000", "132938.500000", "132938.500000", "132938.500000", "132938.500000", "132938.500000", "132938.515000", "132938.515000", "132938.515000", "132938.515000", "132938.515000", "132938.515000", "132938.515000", "132938.531000", "132938.531000", "132938.531000", "133015.031000", "133015.031000", "133015.031000", "133015.031000", "133015.046000", "133015.046000", "133015.046000", "133015.046000", "133015.046000", "133015.046000", "133015.046000", "133015.062000", "133015.062000", "133015.062000", "133015.062000", "133015.062000", "133015.062000", "133015.062000", "133015.062000"],
      "InstanceCreationTime": ["132538.484000", "132538.500000", "132538.500000", "132538.500000", "132538.500000", "132538.500000", "132538.500000", "132538.500000", "132538.500000", "132538.515000", "132538.515000", "132538.515000", "132538.515000", "132538.515000", "132538.531000", "132538.531000", "132538.531000", "132538.531000", "132538.531000", "132538.531000", "132538.531000", "132538.546000", "132538.546000", "132538.546000", "132538.546000", "132618.484000", "132618.484000", "132618.484000", "132618.484000", "132618.484000", "132618.500000", "132618.500000", "132618.500000", "132618.500000", "132618.500000", "132618.500000", "132618.500000", "132618.500000", "132618.515000", "132618.515000", "132618.515000", "132618.515000", "132618.515000", "132618.515000", "132618.515000", "132658.484000", "132658.484000", "132658.484000", "132658.484000", "132658.500000", "132658.500000", "132658.500000", "132658.500000", "132658.515000", "132658.515000", "132658.515000", "132658.515000", "132658.515000", "132658.531000", "132658.531000", "132658.531000", "132658.531000", "132658.531000", "132658.531000", "132658.531000", "132738.484000", "132738.484000", "132738.484000", "132738.484000", "132738.484000", "132738.500000", "132738.500000", "132738.500000", "132738.500000", "132738.500000", "132738.500000", "132738.500000", "132738.515000", "132738.515000", "132738.515000", "132738.515000", "132738.531000", "132738.531000", "132738.531000", "132738.531000", "132818.484000", "132818.484000", "132818.484000", "132818.500000", "132818.500000", "132818.500000", "132818.500000", "132818.500000", "132818.515000", "132818.515000", "132818.515000", "132818.515000", "132818.531000", "132818.531000", "132818.531000", "132818.531000", "132818.531000", "132818.531000", "132818.531000", "132818.546000", "132858.484000", "132858.484000", "132858.484000", "132858.484000", "132858.500000", "132858.500000", "132858.500000", "132858.500000", "132858.515000", "132858.515000", "132858.515000", "132858.515000", "132858.515000", "132858.515000", "132858.515000", "132858.515000", "132858.531000", "132858.531000", "132858.531000", "132858.531000", "132938.484000", "132938.484000", "132938.484000", "132938.484000", "132938.484000", "132938.500000", "132938.500000", "132938.500000", "132938.500000", "132938.500000", "132938.515000", "132938.515000", "132938.515000", "132938.515000", "132938.515000", "132938.515000", "132938.515000", "132938.531000", "132938.531000", "132938.531000", "133015.031000", "133015.031000", "133015.031000", "133015.031000", "133015.046000", "133015.046000", "133015.046000", "133015.046000", "133015.046000", "133015.046000", "133015.046000", "133015.062000", "133015.062000", "133015.062000", "133015.062000", "133015.062000", "133015.062000", "133015.062000", "133015.062000"],
      "InstanceNumber": [1, 2, 3, 4, 5, 6, 7, 8, 9, 10, 11, 12, 13, 14, 15, 16, 17, 18, 19, 20, 21, 22, 23, 24, 25, 26, 27, 28, 29, 30, 31, 32, 33, 34, 35, 36, 37, 38, 39, 40, 41, 42, 43, 44, 45, 46, 47, 48, 49, 50, 51, 52, 53, 54, 55, 56, 57, 58, 59, 60, 61, 62, 63, 64, 65, 66, 67, 68, 69, 70, 71, 72, 73, 74, 75, 76, 77, 78, 79, 80, 81, 82, 83, 84, 85, 86, 87, 88, 89, 90, 91, 92, 93, 94, 95, 96, 97, 98, 99, 100, 101, 102, 103, 104, 105, 106, 107, 108, 109, 110, 111, 112, 113, 114, 115, 116, 117, 118, 119, 120, 121, 122, 123, 124, 125, 126, 127, 128, 129, 130, 131, 132, 133, 134, 135, 136, 137, 138, 139, 140, 141, 142, 143, 144, 145, 146, 147, 148, 149, 150, 151, 152, 153, 154, 155, 156, 157, 158, 159, 160, 161, 162, 163, 164],
      "LargestImagePixelValue": [1743, 1723, 1706, 1680, 1700, 1674, 1740, 1667, 1666, 1710, 1650, 1674, 1700, 1703, 1660, 1656, 1676, 1708, 1661, 1646, 1663, 1694, 1682, 1670, 1678, 1691, 1678, 1660, 1675, 1690, 1692, 1730, 1695, 1689, 1721, 1666, 1699, 1681, 1734, 1663, 1696, 1675, 1715, 1675, 1668, 1675, 1693, 1688, 1674, 1690, 1717, 1666, 1683, 1709, 1686, 1676, 1673, 1659, 1722, 1682, 1736, 1704, 1679, 1660, 1687, 1706, 1700, 1692, 1695, 1737, 1670, 1668, 1684, 1736, 1668, 1673, 1693, 1697, 1733, 1660, 1676, 1678, 1705, 1732, 1674, 1668, 1706, 1718, 1683, 1664, 1690, 1705, 1668, 1685, 1707, 1690, 1675, 1687, 1726, 1675, 1690, 1722, 1702, 1699, 1714, 1700, 1709, 1678, 1680, 1693, 1739, 1674, 1696, 1676, 1718, 1666, 1679, 1756, 1663, 1681, 1749, 1678, 1689, 1750, 1747, 1743, 1693, 1728, 1712, 1728, 1712, 1719, 1708, 1732, 1742, 1730, 1719, 1730, 1723, 1754, 1713, 1700, 1741, 1706, 1739, 1716, 1734, 1733, 1707, 1710, 1742, 1679, 1720, 1744, 1710, 1713, 1747, 1695, 1779, 1739, 1745, 1718, 1734, 1730],
      "WindowCenter": [727.0, 726.0, 725.0, 724.0, 725.0, 724.0, 724.0, 723.0, 723.0, 724.0, 724.0, 723.0, 723.0, 723.0, 723.0, 723.0, 724.0, 723.0, 723.0, 723.0, 724.0, 724.0, 724.0, 724.0, 724.0, 724.0, 724.0, 724.0, 724.0, 724.0, 724.0, 725.0, 726.0, 726.0, 725.0, 725.0, 725.0, 724.0, 724.0, 724.0, 725.0, 725.0, 725.0, 725.0, 724.0, 724.0, 724.0, 724.0, 724.0, 725.0, 725.0, 724.0, 724.0, 725.0, 725.0, 724.0, 724.0, 724.0, 725.0, 725.0, 724.0, 724.0, 724.0, 724.0, 726.0, 726.0, 726.0, 726.0, 726.0, 727.0, 725.0, 725.0, 725.0, 725.0, 725.0, 725.0, 725.0, 725.0, 726.0, 724.0, 724.0, 724.0, 725.0, 725.0, 724.0, 725.0, 725.0, 725.0, 725.0, 724.0, 725.0, 725.0, 726.0, 726.0, 725.0, 726.0, 725.0, 725.0, 725.0, 725.0, 726.0, 726.0, 726.0, 725.0, 725.0, 725.0, 725.0, 725.0, 724.0, 724.0, 725.0, 725.0, 725.0, 725.0, 725.0, 724.0, 724.0, 725.0, 725.0, 725.0, 725.0, 725.0, 726.0, 727.0, 726.0, 725.0, 725.0, 726.0, 725.0, 726.0, 726.0, 726.0, 725.0, 726.0, 726.0, 726.0, 725.0, 726.0, 726.0, 727.0, 726.0, 726.0, 727.0, 726.0, 728.0, 727.0, 726.0, 726.0, 725.0, 725.0, 726.0, 725.0, 726.0, 727.0, 726.0, 727.0, 726.0, 726.0, 728.0, 727.0, 726.0, 726.0, 727.0, 727.0],
      "WindowWidth": [1584.0, 1581.0, 1578.0, 1576.0, 1578.0, 1576.0, 1575.0, 1572.0, 1572.0, 1576.0, 1575.0, 1573.0, 1573.0, 1573.0, 1572.0, 1574.0, 1574.0, 1574.0, 1574.0, 1573.0, 1574.0, 1575.0, 1575.0, 1575.0, 1575.0, 1575.0, 1575.0, 1576.0, 1575.0, 1576.0, 1576.0, 1578.0, 1581.0, 1580.0, 1578.0, 1577.0, 1577.0, 1574.0, 1576.0, 1575.0, 1577.0, 1577.0, 1578.0, 1577.0, 1576.0, 1574.0, 1574.0, 1574.0, 1575.0, 1578.0, 1578.0, 1576.0, 1576.0, 1577.0, 1577.0, 1575.0, 1574.0, 1575.0, 1577.0, 1576.0, 1576.0, 1576.0, 1575.0, 1576.0, 1580.0, 1581.0, 1582.0, 1580.0, 1581.0, 1582.0, 1579.0, 1577.0, 1577.0, 1578.0, 1577.0, 1577.0, 1577.0, 1579.0, 1579.0, 1576.0, 1576.0, 1576.0, 1578.0, 1577.0, 1576.0, 1576.0, 1576.0, 1577.0, 1578.0, 1576.0, 1577.0, 1578.0, 1579.0, 1579.0, 1579.0, 1580.0, 1578.0, 1578.0, 1577.0, 1577.0, 1580.0, 1581.0, 1580.0, 1578.0, 1577.0, 1577.0, 1579.0, 1576.0, 1575.0, 1575.0, 1577.0, 1578.0, 1578.0, 1578.0, 1577.0, 1574.0, 1575.0, 1578.0, 1577.0, 1577.0, 1579.0, 1576.0, 1580.0, 1582.0, 1580.0, 1577.0, 1576.0, 1579.0, 1579.0, 1580.0, 1579.0, 1580.0, 1579.0, 1580.0, 1579.0, 1579.0, 1577.0, 1579.0, 1580.0, 1583.0, 1580.0, 1579.0, 1581.0, 1581.0, 1585.0, 1583.0, 1581.0, 1580.0, 1578.0, 1579.0, 1580.0, 1578.0, 1580.0, 1582.0, 1581.0, 1582.0, 1581.0, 1580.0, 1585.0, 1583.0, 1581.0, 1580.0, 1582.0, 1582.0]
    },
    "slices": {}
  }
}