{
  "AcquisitionMatrixPE": 64,
  "AcquisitionNumber": 1,
  "AcquisitionTime": "13:05:14.362500",
  "BandwidthPerPixelPhaseEncode": 33.967,
  "BaseResolution": 64,
  "CoilCombinationMethod": "Sum of Squares",
  "CoilString": "C:HEA;HEP",
  "ConversionSoftware": "dcm2niix",
  "ConversionSoftwareVersion": "v1.0.20220720",
  "DerivedVendorReportedEchoSpacing": 0.000460005,
  "DeviceSerialNumber": "35193",
  "DwellTime": 3.1e-06,
  "EchoTime": 0.03,
  "EffectiveEchoSpacing": 0.000460005,
  "FlipAngle": 90,
  "HeudiconvVersion": "1.1.6",
  "ImageOrientationPatientDICOM": [0.998403, -0.00872654, -0.0558194, 0.00871293, 0.999962, -0.000487128],
  "ImageOrientationText": "Tra>Sag(-3.2)",
  "ImageType": [
    "ORIGINAL",
    "PRIMARY",
    "M",
    "ND",
    "MOSAIC"
],
  "ImagingFrequency": 123.254,
  "InPlanePhaseEncodingDirectionDICOM": "COL",
  "InstitutionAddress": "Xinjiekouwai Street No 19,Beijing,Haidian District,CN,100875",
  "InstitutionName": "Beijing Normal Universtiy/5777c4/",
  "InstitutionalDepartmentName": "Department",
  "MRAcquisitionType": "2D",
  "MagneticFieldStrength": 3,
  "Manufacturer": "Siemens",
  "ManufacturersModelName": "TrioTim",
  "MatrixCoilMode": "SENSE",
  "Modality": "MR",
  "NonlinearGradientCorrection": false,
  "PartialFourier": 1,
  "PatientPosition": "HFS",
  "PercentPhaseFOV": 100,
  "PercentSampling": 100,
  "PhaseEncodingDirection": "j-",
  "PhaseEncodingSteps": 64,
  "PhaseResolution": 1,
  "PixelBandwidth": 2520,
  "ProcedureStepDescription": "BNU_cst_2015^Guo.TaoMei",
  "ProtocolName": "ge_func_3x3x4_164",
  "PulseSequenceDetails": "%SiemensSeq%\\ep2d_bold",
  "ReceiveCoilName": "HeadMatrix",
  "ReconMatrixPE": 64,
  "RepetitionTime": 2,
  "SAR": 0.126984,
  "ScanOptions": "FS",
  "ScanningSequence": "EP",
  "SequenceName": "*epfid2d1_64",
  "SequenceVariant": "SK",
  "SeriesDescription": "ge_func_3x3x4_164",
  "SeriesNumber": 2,
  "ShimSetting": [-4558, -19425, -9852, 974, 6, -300, -42, 153],
  "SliceThickness": 4,
  "SliceTiming": [0, 1.035, 0.06, 1.095, 0.1225, 1.155, 0.1825, 1.2175, 0.2425, 1.2775, 0.305, 1.3375, 0.365, 1.4, 0.425, 1.46, 0.4875, 1.52, 0.5475, 1.5825, 0.6075, 1.6425, 0.67, 1.7025, 0.73, 1.765, 0.79, 1.825, 0.8525, 1.885, 0.9125, 1.9475, 0.9725],
  "SoftwareVersions": "syngo MR B17",
  "SpacingBetweenSlices": 4.6,
  "StationName": "MRC35193",
  "TaskName": "CognitiveControl",
  "TotalReadoutTime": 0.0289803,
  "TxRefAmp": 314.27,
  "dcmmeta_affine": [
    [-3.1200084686279297, 0.02722790651023388, -0.25677892565727234, 103.10467529296875],
    [0.027270426973700523, 3.1248810291290283, 2.8389507411574755e-10, -84.92469024658203],
    [-0.174435555934906, 0.0015222760848701, 4.592827320098877, -57.155311584472656],
    [0.0, 0.0, 0.0, 1.0]
],
  "dcmmeta_reorient_transform": [
    [0.0, -1.0, 0.0, 63.0],
    [1.0, 0.0, 0.0, 0.0],
    [0.0, 0.0, 1.0, 0.0],
    [0.0, 0.0, 0.0, 1.0]
],
  "dcmmeta_shape": [64, 64, 33, 164],
  "dcmmeta_slice_dim": 2,
  "dcmmeta_version": 0.6,
  "global": {
    "const": {
      "AcquisitionMatrix": [64, 0, 0, 64],
      "AngioFlag": "N",
      "BitsAllocated": 16,
      "BitsStored": 12,
      "Columns": 384,
      "EchoNumbers": 1,
      "EchoTime": 30.0,
      "EchoTrainLength": 1,
      "FlipAngle": 90.0,
      "HighBit": 11,
      "ImageOrientationPatient": [0.99840274658839, -0.008726536836, -0.0558193797852, 0.00871293011051, 0.9999619230525, -0.0004871283606],
      "ImagePositionPatient": [-608.37786882986, -607.56050853958, -28.906154774375],
      "ImageType": [
        "ORIGINAL",
        "PRIMARY",
        "M",
        "ND",
        "MOSAIC"
],
      "ImagedNucleus": "1H",
      "ImagingFrequency": 123.253913,
      "InPlanePhaseEncodingDirection": "COL",
      "MRAcquisitionType": "2D",
      "MagneticFieldStrength": 3.0,
      "Manufacturer": "SIEMENS",
      "ManufacturerModelName": "TrioTim",
      "Modality": "MR",
      "NumberOfAverages": 1.0,
      "NumberOfPhaseEncodingSteps": 64,
      "PercentPhaseFieldOfView": 100.0,
      "PercentSampling": 100.0,
      "PerformedProcedureStepStartTime": "125651.265000",
      "PhotometricInterpretation": "MONOCHROME2",
      "PixelBandwidth": 2520.0,
      "PixelRepresentation": 0,
      "PixelSpacing": [3.125, 3.125],
      "ProtocolName": "ge_func_3x3x4_164",
      "RepetitionTime": 2000.0,
      "Rows": 384,
      "SAR": 0.12698424690719,
      "SamplesPerPixel": 1,
      "ScanOptions": "FS",
      "ScanningSequence": "EP",
      "SequenceName": "*epfid2d1_64",
      "SequenceVariant": "SK",
      "SeriesDescription": "ge_func_3x3x4_164",
      "SeriesNumber": 2,
      "SeriesTime": "130558.484000",
      "SliceLocation": -62.821651652091,
      "SliceThickness": 4.0,
      "SmallestImagePixelValue": 0,
      "SoftwareVersions": "syngo MR B17",
      "SpacingBetweenSlices": 4.5999999243395,
      "SpecificCharacterSet": "ISO_IR 100",
      "StudyID": "1",
      "StudyTime": "125651.218000",
      "TransmitCoilName": "Body",
      "VariableFlipAngleFlag": "N",
      "WindowCenterWidthExplanation": "Algo1",
      "dBdt": 0.0},
    "slices": {}
  },
  "time": {
    "samples": {
      "AcquisitionNumber": [1, 2, 3, 4, 5, 6, 7, 8, 9, 10, 11, 12, 13, 14, 15, 16, 17, 18, 19, 20, 21, 22, 23, 24, 25, 26, 27, 28, 29, 30, 31, 32, 33, 34, 35, 36, 37, 38, 39, 40, 41, 42, 43, 44, 45, 46, 47, 48, 49, 50, 51, 52, 53, 54, 55, 56, 57, 58, 59, 60, 61, 62, 63, 64, 65, 66, 67, 68, 69, 70, 71, 72, 73, 74, 75, 76, 77, 78, 79, 80, 81, 82, 83, 84, 85, 86, 87, 88, 89, 90, 91, 92, 93, 94, 95, 96, 97, 98, 99, 100, 101, 102, 103, 104, 105, 106, 107, 108, 109, 110, 111, 112, 113, 114, 115, 116, 117, 118, 119, 120, 121, 122, 123, 124, 125, 126, 127, 128, 129, 130, 131, 132, 133, 134, 135, 136, 137, 138, 139, 140, 141, 142, 143, 144, 145, 146, 147, 148, 149, 150, 151, 152, 153, 154, 155, 156, 157, 158, 159, 160, 161, 162, 163, 164],
      "AcquisitionTime": ["130514.362500", "130516.370000", "130518.377500", "130520.387500", "130522.395000", "130524.402500", "130526.410000", "130528.417500", "130530.427500", "130532.435000", "130534.442500", "130536.450000", "130538.457500", "130540.467500", "130542.475000", "130544.482500", "130546.490000", "130548.500000", "130550.507500", "130552.515000", "130554.522500", "130556.530000", "130558.540000", "130600.547500", "130602.555000", "130604.562500", "130606.570000", "130608.580000", "130610.587500", "130612.595000", "130614.602500", "130616.610000", "130618.620000", "130620.627500", "130622.635000", "130624.642500", "130626.652500", "130628.660000", "130630.667500", "130632.675000", "130634.682500", "130636.692500", "130638.700000", "130640.707500", "130642.715000", "130644.722500", "130646.732500", "130648.740000", "130650.747500", "130652.755000", "130654.765000", "130656.772500", "130658.780000", "130700.787500", "130702.795000", "130704.805000", "130706.812500", "130708.820000", "130710.827500", "130712.835000", "130714.845000", "130716.852500", "130718.860000", "130720.867500", "130722.877500", "130724.885000", "130726.892500", "130728.900000", "130730.907500", "130732.917500", "130734.925000", "130736.932500", "130738.940000", "130740.947500", "130742.957500", "130744.965000", "130746.972500", "130748.980000", "130750.987500", "130752.997500", "130755.005000", "130757.012500", "130759.020000", "130801.030000", "130803.037500", "130805.045000", "130807.052500", "130809.060000", "130811.070000", "130813.077500", "130815.085000", "130817.092500", "130819.100000", "130821.110000", "130823.117500", "130825.125000", "130827.132500", "130829.142500", "130831.150000", "130833.157500", "130835.165000", "130837.172500", "130839.182500", "130841.190000", "130843.197500", "130845.205000", "130847.212500", "130849.222500", "130851.230000", "130853.237500", "130855.245000", "130857.255000", "130859.262500", "130901.270000", "130903.277500", "130905.285000", "130907.295000", "130909.302500", "130911.310000", "130913.317500", "130915.325000", "130917.335000", "130919.342500", "130921.350000", "130923.357500", "130925.367500", "130927.375000", "130929.382500", "130931.390000", "130933.397500", "130935.407500", "130937.415000", "130939.422500", "130941.430000", "130943.437500", "130945.447500", "130947.455000", "130949.462500", "130951.470000", "130953.477500", "130955.487500", "130957.495000", "130959.502500", "131001.510000", "131003.520000", "131005.527500", "131007.535000", "131009.542500", "131011.550000", "131013.560000", "131015.567500", "131017.575000", "131019.582500", "131021.590000", "131023.600000", "131025.607500", "131027.615000", "131029.622500", "131031.632500", "131033.640000", "131035.647500", "131037.655000", "131039.662500", "131041.672500"],
      "ContentTime": ["130558.484000", "130558.500000", "130558.500000", "130558.500000", "130558.500000", "130558.515000", "130558.515000", "130558.515000", "130558.515000", "130558.515000", "130558.515000", "130558.531000", "130558.531000", "130558.531000", "130558.531000", "130558.531000", "130558.531000", "130558.531000", "130558.531000", "130558.546000", "130558.546000", "130638.484000", "130638.484000", "130638.484000", "130638.484000", "130638.484000", "130638.500000", "130638.500000", "130638.500000", "130638.500000", "130638.500000", "130638.500000", "130638.500000", "130638.515000", "130638.515000", "130638.515000", "130638.515000", "130638.515000", "130638.515000", "130638.515000", "130638.515000", "130718.484000", "130718.484000", "130718.484000", "130718.484000", "130718.484000", "130718.500000", "130718.500000", "130718.500000", "130718.500000", "130718.500000", "130718.500000", "130718.515000", "130718.515000", "130718.515000", "130718.515000", "130718.515000", "130718.515000", "130718.515000", "130718.515000", "130718.531000", "130758.484000", "130758.484000", "130758.484000", "130758.500000", "130758.500000", "130758.500000", "130758.500000", "130758.500000", "130758.500000", "130758.500000", "130758.515000", "130758.515000", "130758.515000", "130758.515000", "130758.515000", "130758.515000", "130758.515000", "130758.515000", "130758.531000", "130758.531000", "130838.484000", "130838.484000", "130838.500000", "130838.500000", "130838.500000", "130838.500000", "130838.515000", "130838.515000", "130838.515000", "130838.515000", "130838.515000", "130838.531000", "130838.531000", "130838.531000", "130838.531000", "130838.546000", "130838.546000", "130838.546000", "130838.546000", "130838.546000", "130918.484000", "130918.484000", "130918.484000", "130918.500000", "130918.500000", "130918.500000", "130918.500000", "130918.500000", "130918.500000", "130918.500000", "130918.515000", "130918.515000", "130918.515000", "130918.515000", "130918.515000", "130918.515000", "130918.515000", "130918.531000", "130918.531000", "130918.531000", "130958.484000", "130958.484000", "130958.484000", "130958.484000", "130958.500000", "130958.500000", "130958.500000", "130958.500000", "130958.500000", "130958.500000", "130958.500000", "130958.500000", "130958.515000", "130958.515000", "130958.515000", "130958.515000", "130958.515000", "130958.515000", "130958.515000", "130958.515000", "131038.484000", "131038.484000", "131038.484000", "131038.484000", "131038.500000", "131038.500000", "131038.500000", "131038.500000", "131038.500000", "131038.500000", "131038.500000", "131038.500000", "131038.515000", "131038.515000", "131038.515000", "131038.515000", "131038.515000", "131038.515000", "131038.531000", "131038.531000", "131043.125000", "131043.125000", "131043.140000"],
      "InstanceCreationTime": ["130558.484000", "130558.500000", "130558.500000", "130558.500000", "130558.500000", "130558.515000", "130558.515000", "130558.515000", "130558.515000", "130558.515000", "130558.515000", "130558.531000", "130558.531000", "130558.531000", "130558.531000", "130558.531000", "130558.531000", "130558.531000", "130558.531000", "130558.546000", "130558.546000", "130638.484000", "130638.484000", "130638.484000", "130638.484000", "130638.484000", "130638.500000", "130638.500000", "130638.500000", "130638.500000", "130638.500000", "130638.500000", "130638.500000", "130638.515000", "130638.515000", "130638.515000", "130638.515000", "130638.515000", "130638.515000", "130638.515000", "130638.515000", "130718.484000", "130718.484000", "130718.484000", "130718.484000", "130718.484000", "130718.500000", "130718.500000", "130718.500000", "130718.500000", "130718.500000", "130718.500000", "130718.515000", "130718.515000", "130718.515000", "130718.515000", "130718.515000", "130718.515000", "130718.515000", "130718.515000", "130718.531000", "130758.484000", "130758.484000", "130758.484000", "130758.500000", "130758.500000", "130758.500000", "130758.500000", "130758.500000", "130758.500000", "130758.500000", "130758.515000", "130758.515000", "130758.515000", "130758.515000", "130758.515000", "130758.515000", "130758.515000", "130758.515000", "130758.531000", "130758.531000", "130838.484000", "130838.484000", "130838.500000", "130838.500000", "130838.500000", "130838.500000", "130838.515000", "130838.515000", "130838.515000", "130838.515000", "130838.515000", "130838.531000", "130838.531000", "130838.531000", "130838.531000", "130838.546000", "130838.546000", "130838.546000", "130838.546000", "130838.546000", "130918.484000", "130918.484000", "130918.484000", "130918.500000", "130918.500000", "130918.500000", "130918.500000", "130918.500000", "130918.500000", "130918.500000", "130918.515000", "130918.515000", "130918.515000", "130918.515000", "130918.515000", "130918.515000", "130918.515000", "130918.531000", "130918.531000", "130918.531000", "130958.484000", "130958.484000", "130958.484000", "130958.484000", "130958.500000", "130958.500000", "130958.500000", "130958.500000", "130958.500000", "130958.500000", "130958.500000", "130958.500000", "130958.515000", "130958.515000", "130958.515000", "130958.515000", "130958.515000", "130958.515000", "130958.515000", "130958.515000", "131038.484000", "131038.484000", "131038.484000", "131038.484000", "131038.500000", "131038.500000", "131038.500000", "131038.500000", "131038.500000", "131038.500000", "131038.500000", "131038.500000", "131038.515000", "131038.515000", "131038.515000", "131038.515000", "131038.515000", "131038.515000", "131038.531000", "131038.531000", "131043.125000", "131043.125000", "131043.140000"],
      "InstanceNumber": [1, 2, 3, 4, 5, 6, 7, 8, 9, 10, 11, 12, 13, 14, 15, 16, 17, 18, 19, 20, 21, 22, 23, 24, 25, 26, 27, 28, 29, 30, 31, 32, 33, 34, 35, 36, 37, 38, 39, 40, 41, 42, 43, 44, 45, 46, 47, 48, 49, 50, 51, 52, 53, 54, 55, 56, 57, 58, 59, 60, 61, 62, 63, 64, 65, 66, 67, 68, 69, 70, 71, 72, 73, 74, 75, 76, 77, 78, 79, 80, 81, 82, 83, 84, 85, 86, 87, 88, 89, 90, 91, 92, 93, 94, 95, 96, 97, 98, 99, 100, 101, 102, 103, 104, 105, 106, 107, 108, 109, 110, 111, 112, 113, 114, 115, 116, 117, 118, 119, 120, 121, 122, 123, 124, 125, 126, 127, 128, 129, 130, 131, 132, 133, 134, 135, 136, 137, 138, 139, 140, 141, 142, 143, 144, 145, 146, 147, 148, 149, 150, 151, 152, 153, 154, 155, 156, 157, 158, 159, 160, 161, 162, 163, 164],
      "LargestImagePixelValue": [1756, 1679, 1675, 1680, 1664, 1663, 1664, 1646, 1672, 1677, 1662, 1647, 1660, 1651, 1636, 1674, 1665, 1655, 1640, 1652, 1657, 1645, 1658, 1667, 1651, 1654, 1668, 1643, 1651, 1648, 1663, 1647, 1648, 1641, 1642, 1653, 1646, 1652, 1654, 1664, 1675, 1679, 1674, 1668, 1655, 1654, 1663, 1664, 1685, 1672, 1683, 1665, 1657, 1647, 1659, 1646, 1667, 1661, 1669, 1666, 1669, 1666, 1656, 1663, 1662, 1665, 1660, 1651, 1663, 1664, 1653, 1654, 1658, 1660, 1652, 1648, 1642, 1648, 1650, 1652, 1655, 1645, 1650, 1643, 1657, 1654, 1663, 1649, 1647, 1658, 1647, 1647, 1648, 1649, 1643, 1643, 1647, 1656, 1655, 1648, 1660, 1649, 1656, 1645, 1656, 1652, 1657, 1662, 1676, 1689, 1683, 1682, 1679, 1686, 1683, 1703, 1686, 1691, 1695, 1666, 1679, 1670, 1658, 1659, 1666, 1675, 1676, 1707, 1695, 1681, 1700, 1689, 1689, 1694, 1699, 1695, 1700, 1703, 1693, 1693, 1703, 1708, 1690, 1699, 1704, 1692, 1707, 1701, 1704, 1702, 1714, 1711, 1710, 1726, 1709, 1715, 1707, 1701, 1703, 1725, 1701, 1679, 1689, 1691],
      "WindowCenter": [724.0, 722.0, 722.0, 721.0, 721.0, 720.0, 720.0, 720.0, 720.0, 720.0, 720.0, 720.0, 720.0, 720.0, 720.0, 721.0, 721.0, 721.0, 721.0, 720.0, 720.0, 721.0, 721.0, 721.0, 720.0, 720.0, 720.0, 720.0, 720.0, 720.0, 721.0, 720.0, 720.0, 720.0, 720.0, 721.0, 721.0, 721.0, 721.0, 721.0, 721.0, 722.0, 722.0, 721.0, 720.0, 720.0, 721.0, 722.0, 722.0, 722.0, 723.0, 722.0, 722.0, 721.0, 721.0, 721.0, 721.0, 721.0, 721.0, 721.0, 721.0, 721.0, 721.0, 721.0, 721.0, 721.0, 722.0, 722.0, 722.0, 722.0, 722.0, 721.0, 722.0, 721.0, 721.0, 721.0, 721.0, 721.0, 721.0, 721.0, 721.0, 721.0, 722.0, 721.0, 722.0, 722.0, 722.0, 722.0, 722.0, 722.0, 722.0, 722.0, 722.0, 722.0, 722.0, 722.0, 722.0, 722.0, 722.0, 722.0, 721.0, 721.0, 721.0, 721.0, 721.0, 722.0, 722.0, 722.0, 722.0, 722.0, 722.0, 722.0, 722.0, 722.0, 723.0, 723.0, 723.0, 722.0, 721.0, 720.0, 720.0, 720.0, 721.0, 721.0, 722.0, 722.0, 723.0, 722.0, 723.0, 723.0, 724.0, 724.0, 724.0, 724.0, 724.0, 725.0, 724.0, 724.0, 724.0, 725.0, 725.0, 724.0, 724.0, 724.0, 724.0, 724.0, 724.0, 724.0, 725.0, 725.0, 725.0, 725.0, 724.0, 724.0, 724.0, 724.0, 723.0, 724.0, 724.0, 724.0, 723.0, 723.0, 723.0, 723.0],
      "WindowWidth": [1577.0, 1572.0, 1571.0, 1569.0, 1568.0, 1566.0, 1567.0, 1565.0, 1566.0, 1566.0, 1567.0, 1567.0, 1565.0, 1567.0, 1566.0, 1569.0, 1568.0, 1568.0, 1568.0, 1567.0, 1567.0, 1569.0, 1568.0, 1568.0, 1567.0, 1567.0, 1566.0, 1567.0, 1567.0, 1567.0, 1569.0, 1568.0, 1567.0, 1565.0, 1566.0, 1569.0, 1570.0, 1569.0, 1569.0, 1569.0, 1569.0, 1572.0, 1572.0, 1569.0, 1567.0, 1567.0, 1571.0, 1573.0, 1573.0, 1573.0, 1574.0, 1572.0, 1570.0, 1568.0, 1569.0, 1568.0, 1569.0, 1568.0, 1567.0, 1568.0, 1569.0, 1570.0, 1569.0, 1569.0, 1569.0, 1569.0, 1571.0, 1571.0, 1572.0, 1572.0, 1571.0, 1570.0, 1571.0, 1569.0, 1571.0, 1570.0, 1569.0, 1568.0, 1568.0, 1569.0, 1569.0, 1570.0, 1571.0, 1570.0, 1570.0, 1571.0, 1573.0, 1572.0, 1573.0, 1572.0, 1572.0, 1571.0, 1572.0, 1571.0, 1571.0, 1570.0, 1572.0, 1573.0, 1572.0, 1571.0, 1569.0, 1568.0, 1569.0, 1570.0, 1570.0, 1571.0, 1572.0, 1572.0, 1572.0, 1573.0, 1573.0, 1573.0, 1572.0, 1572.0, 1574.0, 1576.0, 1576.0, 1573.0, 1570.0, 1567.0, 1567.0, 1567.0, 1568.0, 1569.0, 1571.0, 1571.0, 1573.0, 1573.0, 1575.0, 1574.0, 1577.0, 1577.0, 1576.0, 1577.0, 1578.0, 1579.0, 1577.0, 1576.0, 1576.0, 1579.0, 1579.0, 1577.0, 1577.0, 1576.0, 1577.0, 1576.0, 1577.0, 1577.0, 1578.0, 1580.0, 1579.0, 1579.0, 1577.0, 1577.0, 1577.0, 1576.0, 1574.0, 1578.0, 1578.0, 1576.0, 1574.0, 1573.0, 1573.0, 1573.0]
    },
    "slices": {}
  }
}