{
  "AcquisitionMatrixPE": 64,
  "AcquisitionNumber": 1,
  "AcquisitionTime": "13:44:42.972500",
  "BandwidthPerPixelPhaseEncode": 33.967,
  "BaseResolution": 64,
  "CoilCombinationMethod": "Sum of Squares",
  "CoilString": "C:HEA;HEP",
  "ConversionSoftware": "dcm2niix",
  "ConversionSoftwareVersion": "v1.0.20220720",
  "DerivedVendorReportedEchoSpacing": 0.000460005,
  "DeviceSerialNumber": "35193",
  "DwellTime": 3.1e-06,
  "EchoTime": 0.03,
  "EffectiveEchoSpacing": 0.000460005,
  "FlipAngle": 90,
  "HeudiconvVersion": "1.1.6",
  "ImageOrientationPatientDICOM": [1, 0, 0, 0, 1, 0],
  "ImageOrientationText": "Tra",
  "ImageType": [
    "ORIGINAL",
    "PRIMARY",
    "M",
    "ND",
    "MOSAIC"
],
  "ImagingFrequency": 123.254,
  "InPlanePhaseEncodingDirectionDICOM": "COL",
  "InstitutionAddress": "Xinjiekouwai Street No 19,Beijing,Haidian District,CN,100875",
  "InstitutionName": "BNU MRI Center",
  "InstitutionalDepartmentName": "Department",
  "MRAcquisitionType": "2D",
  "MagneticFieldStrength": 3,
  "Manufacturer": "Siemens",
  "ManufacturersModelName": "TrioTim",
  "MatrixCoilMode": "SENSE",
  "Modality": "MR",
  "NonlinearGradientCorrection": false,
  "PartialFourier": 1,
  "PatientPosition": "HFS",
  "PercentPhaseFOV": 100,
  "PercentSampling": 100,
  "PhaseEncodingDirection": "j-",
  "PhaseEncodingSteps": 64,
  "PhaseResolution": 1,
  "PixelBandwidth": 2520,
  "ProcedureStepDescription": "BNU_cst_2015^Guo.TaoMei",
  "ProtocolName": "ge_func_3x3x4_164",
  "PulseSequenceDetails": "%SiemensSeq%\\ep2d_bold",
  "ReceiveCoilName": "HeadMatrix",
  "ReconMatrixPE": 64,
  "RepetitionTime": 2,
  "SAR": 0.1158,
  "ScanOptions": "FS",
  "ScanningSequence": "EP",
  "SequenceName": "*epfid2d1_64",
  "SequenceVariant": "SK",
  "SeriesDescription": "ge_func_3x3x4_164",
  "SeriesNumber": 4,
  "ShimSetting": [-4514, -19293, -9833, 1125, -296, -808, -162, -44],
  "SliceThickness": 4,
  "SliceTiming": [0, 1.0325, 0.06, 1.095, 0.12, 1.155, 0.1825, 1.215, 0.2425, 1.2775, 0.3025, 1.3375, 0.365, 1.3975, 0.425, 1.46, 0.485, 1.52, 0.5475, 1.58, 0.6075, 1.6425, 0.6675, 1.7025, 0.73, 1.7625, 0.79, 1.825, 0.85, 1.885, 0.9125, 1.945, 0.9725],
  "SoftwareVersions": "syngo MR B17",
  "SpacingBetweenSlices": 4.6,
  "StationName": "MRC35193",
  "TaskName": "CognitiveControl",
  "TotalReadoutTime": 0.0289803,
  "TxRefAmp": 357.322,
  "dcmmeta_affine": [
    [-3.125, 0.0, 0.0, 102.69879150390625],
    [0.0, 3.125, 0.0, -84.73042297363281],
    [0.0, 0.0, 4.599999904632568, -83.04578399658203],
    [0.0, 0.0, 0.0, 1.0]
],
  "dcmmeta_reorient_transform": [
    [0.0, -1.0, 0.0, 63.0],
    [1.0, 0.0, 0.0, 0.0],
    [0.0, 0.0, 1.0, 0.0],
    [0.0, 0.0, 0.0, 1.0]
],
  "dcmmeta_shape": [64, 64, 33, 164],
  "dcmmeta_slice_dim": 2,
  "dcmmeta_version": 0.6,
  "global": {
    "const": {
      "AcquisitionMatrix": [64, 0, 0, 64],
      "AngioFlag": "N",
      "BitsAllocated": 16,
      "BitsStored": 12,
      "Columns": 384,
      "EchoNumbers": 1,
      "EchoTime": 30.0,
      "EchoTrainLength": 1,
      "FlipAngle": 90.0,
      "HighBit": 11,
      "ImageOrientationPatient": [1.0, 0.0, 0.0, 0.0, 1.0, 0.0],
      "ImagePositionPatient": [-602.69879508018, -612.14457798004, -83.045783996582],
      "ImageType": [
        "ORIGINAL",
        "PRIMARY",
        "M",
        "ND",
        "MOSAIC"
],
      "ImagedNucleus": "1H",
      "ImagingFrequency": 123.253724,
      "InPlanePhaseEncodingDirection": "COL",
      "MRAcquisitionType": "2D",
      "MagneticFieldStrength": 3.0,
      "Manufacturer": "SIEMENS",
      "ManufacturerModelName": "TrioTim",
      "Modality": "MR",
      "NumberOfAverages": 1.0,
      "NumberOfPhaseEncodingSteps": 64,
      "PercentPhaseFieldOfView": 100.0,
      "PercentSampling": 100.0,
      "PerformedProcedureStepStartTime": "132856.171000",
      "PhotometricInterpretation": "MONOCHROME2",
      "PixelBandwidth": 2520.0,
      "PixelRepresentation": 0,
      "PixelSpacing": [3.125, 3.125],
      "ProtocolName": "ge_func_3x3x4_164",
      "RepetitionTime": 2000.0,
      "Rows": 384,
      "SAR": 0.11580043556544,
      "SamplesPerPixel": 1,
      "ScanOptions": "FS",
      "ScanningSequence": "EP",
      "SequenceName": "*epfid2d1_64",
      "SequenceVariant": "SK",
      "SeriesDescription": "ge_func_3x3x4_164",
      "SeriesNumber": 4,
      "SeriesTime": "134532.468000",
      "SliceLocation": -83.045783996582,
      "SliceThickness": 4.0,
      "SmallestImagePixelValue": 0,
      "SoftwareVersions": "syngo MR B17",
      "SpacingBetweenSlices": 4.6000001430511,
      "SpecificCharacterSet": "ISO_IR 100",
      "StudyID": "1",
      "StudyTime": "132856.093000",
      "TransmitCoilName": "Body",
      "VariableFlipAngleFlag": "N",
      "WindowCenterWidthExplanation": "Algo1",
      "dBdt": 0.0},
    "slices": {}
  },
  "time": {
    "samples": {
      "AcquisitionNumber": [1, 2, 3, 4, 5, 6, 7, 8, 9, 10, 11, 12, 13, 14, 15, 16, 17, 18, 19, 20, 21, 22, 23, 24, 25, 26, 27, 28, 29, 30, 31, 32, 33, 34, 35, 36, 37, 38, 39, 40, 41, 42, 43, 44, 45, 46, 47, 48, 49, 50, 51, 52, 53, 54, 55, 56, 57, 58, 59, 60, 61, 62, 63, 64, 65, 66, 67, 68, 69, 70, 71, 72, 73, 74, 75, 76, 77, 78, 79, 80, 81, 82, 83, 84, 85, 86, 87, 88, 89, 90, 91, 92, 93, 94, 95, 96, 97, 98, 99, 100, 101, 102, 103, 104, 105, 106, 107, 108, 109, 110, 111, 112, 113, 114, 115, 116, 117, 118, 119, 120, 121, 122, 123, 124, 125, 126, 127, 128, 129, 130, 131, 132, 133, 134, 135, 136, 137, 138, 139, 140, 141, 142, 143, 144, 145, 146, 147, 148, 149, 150, 151, 152, 153, 154, 155, 156, 157, 158, 159, 160, 161, 162, 163, 164],
      "AcquisitionTime": ["134442.972500", "134444.980000", "134446.987500", "134448.995000", "134451.005000", "134453.012500", "134455.020000", "134457.027500", "134459.035000", "134501.045000", "134503.052500", "134505.060000", "134507.067500", "134509.075000", "134511.085000", "134513.092500", "134515.100000", "134517.107500", "134519.117500", "134521.125000", "134523.132500", "134525.140000", "134527.147500", "134529.157500", "134531.165000", "134533.172500", "134535.180000", "134537.187500", "134539.197500", "134541.205000", "134543.212500", "134545.220000", "134547.230000", "134549.237500", "134551.245000", "134553.252500", "134555.260000", "134557.270000", "134559.277500", "134601.285000", "134603.292500", "134605.300000", "134607.310000", "134609.317500", "134611.325000", "134613.332500", "134615.340000", "134617.350000", "134619.357500", "134621.365000", "134623.372500", "134625.382500", "134627.390000", "134629.397500", "134631.405000", "134633.412500", "134635.422500", "134637.430000", "134639.437500", "134641.445000", "134643.452500", "134645.462500", "134647.470000", "134649.477500", "134651.485000", "134653.495000", "134655.502500", "134657.510000", "134659.517500", "134701.525000", "134703.535000", "134705.542500", "134707.550000", "134709.557500", "134711.565000", "134713.575000", "134715.582500", "134717.590000", "134719.597500", "134721.607500", "134723.615000", "134725.622500", "134727.630000", "134729.637500", "134731.647500", "134733.655000", "134735.662500", "134737.670000", "134739.677500", "134741.687500", "134743.695000", "134745.702500", "134747.710000", "134749.717500", "134751.727500", "134753.735000", "134755.742500", "134757.750000", "134759.760000", "134801.767500", "134803.775000", "134805.782500", "134807.790000", "134809.800000", "134811.807500", "134813.815000", "134815.822500", "134817.830000", "134819.840000", "134821.847500", "134823.855000", "134825.862500", "134827.872500", "134829.880000", "134831.887500", "134833.895000", "134835.902500", "134837.912500", "134839.920000", "134841.927500", "134843.935000", "134845.942500", "134847.952500", "134849.960000", "134851.967500", "134853.975000", "134855.985000", "134857.992500", "134900.000000", "134902.007500", "134904.015000", "134906.025000", "134908.032500", "134910.040000", "134912.047500", "134914.055000", "134916.065000", "134918.072500", "134920.080000", "134922.087500", "134924.095000", "134926.105000", "134928.112500", "134930.120000", "134932.127500", "134934.137500", "134936.145000", "134938.152500", "134940.160000", "134942.167500", "134944.177500", "134946.185000", "134948.192500", "134950.200000", "134952.207500", "134954.217500", "134956.225000", "134958.232500", "135000.240000", "135002.250000", "135004.257500", "135006.265000", "135008.272500", "135010.280000"],
      "ContentTime": ["134532.468000", "134532.468000", "134532.468000", "134532.484000", "134532.484000", "134532.484000", "134532.484000", "134532.500000", "134532.500000", "134532.500000", "134532.500000", "134532.500000", "134532.500000", "134532.500000", "134532.515000", "134532.515000", "134532.515000", "134532.515000", "134532.515000", "134532.531000", "134532.531000", "134532.531000", "134532.531000", "134532.531000", "134612.468000", "134612.468000", "134612.468000", "134612.468000", "134612.468000", "134612.468000", "134612.468000", "134612.484000", "134612.484000", "134612.484000", "134612.484000", "134612.500000", "134612.500000", "134612.500000", "134612.500000", "134612.500000", "134612.500000", "134612.500000", "134612.500000", "134612.515000", "134652.468000", "134652.468000", "134652.468000", "134652.468000", "134652.468000", "134652.468000", "134652.468000", "134652.484000", "134652.484000", "134652.484000", "134652.484000", "134652.484000", "134652.500000", "134652.500000", "134652.500000", "134652.500000", "134652.500000", "134652.500000", "134652.500000", "134652.500000", "134732.468000", "134732.468000", "134732.468000", "134732.468000", "134732.468000", "134732.484000", "134732.484000", "134732.500000", "134732.500000", "134732.500000", "134732.500000", "134732.515000", "134732.515000", "134732.515000", "134732.515000", "134732.515000", "134732.515000", "134732.515000", "134732.515000", "134732.531000", "134812.468000", "134812.468000", "134812.468000", "134812.484000", "134812.484000", "134812.484000", "134812.484000", "134812.484000", "134812.484000", "134812.500000", "134812.500000", "134812.500000", "134812.500000", "134812.515000", "134812.515000", "134812.515000", "134812.515000", "134812.515000", "134812.515000", "134812.515000", "134852.468000", "134852.468000", "134852.468000", "134852.468000", "134852.468000", "134852.484000", "134852.484000", "134852.484000", "134852.484000", "134852.484000", "134852.484000", "134852.500000", "134852.500000", "134852.500000", "134852.500000", "134852.500000", "134852.500000", "134852.500000", "134852.500000", "134852.515000", "134932.468000", "134932.468000", "134932.468000", "134932.468000", "134932.468000", "134932.468000", "134932.484000", "134932.484000", "134932.484000", "134932.484000", "134932.500000", "134932.500000", "134932.500000", "134932.500000", "134932.500000", "134932.500000", "134932.500000", "134932.515000", "134932.515000", "134932.515000", "135011.078000", "135011.078000", "135011.093000", "135011.093000", "135011.093000", "135011.093000", "135011.093000", "135011.093000", "135011.093000", "135011.093000", "135011.109000", "135011.109000", "135011.109000", "135011.109000", "135011.125000", "135011.125000", "135011.125000", "135011.125000", "135011.125000", "135011.140000"],
      "InstanceCreationTime": ["134532.468000", "134532.468000", "134532.468000", "134532.484000", "134532.484000", "134532.484000", "134532.484000", "134532.500000", "134532.500000", "134532.500000", "134532.500000", "134532.500000", "134532.500000", "134532.500000", "134532.515000", "134532.515000", "134532.515000", "134532.515000", "134532.515000", "134532.531000", "134532.531000", "134532.531000", "134532.531000", "134532.531000", "134612.468000", "134612.468000", "134612.468000", "134612.468000", "134612.468000", "134612.468000", "134612.468000", "134612.484000", "134612.484000", "134612.484000", "134612.484000", "134612.500000", "134612.500000", "134612.500000", "134612.500000", "134612.500000", "134612.500000", "134612.500000", "134612.500000", "134612.515000", "134652.468000", "134652.468000", "134652.468000", "134652.468000", "134652.468000", "134652.468000", "134652.468000", "134652.484000", "134652.484000", "134652.484000", "134652.484000", "134652.484000", "134652.500000", "134652.500000", "134652.500000", "134652.500000", "134652.500000", "134652.500000", "134652.500000", "134652.500000", "134732.468000", "134732.468000", "134732.468000", "134732.468000", "134732.468000", "134732.484000", "134732.484000", "134732.500000", "134732.500000", "134732.500000", "134732.500000", "134732.515000", "134732.515000", "134732.515000", "134732.515000", "134732.515000", "134732.515000", "134732.515000", "134732.515000", "134732.531000", "134812.468000", "134812.468000", "134812.468000", "134812.484000", "134812.484000", "134812.484000", "134812.484000", "134812.484000", "134812.484000", "134812.500000", "134812.500000", "134812.500000", "134812.500000", "134812.515000", "134812.515000", "134812.515000", "134812.515000", "134812.515000", "134812.515000", "134812.515000", "134852.468000", "134852.468000", "134852.468000", "134852.468000", "134852.468000", "134852.484000", "134852.484000", "134852.484000", "134852.484000", "134852.484000", "134852.484000", "134852.500000", "134852.500000", "134852.500000", "134852.500000", "134852.500000", "134852.500000", "134852.500000", "134852.500000", "134852.515000", "134932.468000", "134932.468000", "134932.468000", "134932.468000", "134932.468000", "134932.468000", "134932.484000", "134932.484000", "134932.484000", "134932.484000", "134932.500000", "134932.500000", "134932.500000", "134932.500000", "134932.500000", "134932.500000", "134932.500000", "134932.515000", "134932.515000", "134932.515000", "135011.078000", "135011.078000", "135011.093000", "135011.093000", "135011.093000", "135011.093000", "135011.093000", "135011.093000", "135011.093000", "135011.093000", "135011.109000", "135011.109000", "135011.109000", "135011.109000", "135011.125000", "135011.125000", "135011.125000", "135011.125000", "135011.125000", "135011.140000"],
      "InstanceNumber": [1, 2, 3, 4, 5, 6, 7, 8, 9, 10, 11, 12, 13, 14, 15, 16, 17, 18, 19, 20, 21, 22, 23, 24, 25, 26, 27, 28, 29, 30, 31, 32, 33, 34, 35, 36, 37, 38, 39, 40, 41, 42, 43, 44, 45, 46, 47, 48, 49, 50, 51, 52, 53, 54, 55, 56, 57, 58, 59, 60, 61, 62, 63, 64, 65, 66, 67, 68, 69, 70, 71, 72, 73, 74, 75, 76, 77, 78, 79, 80, 81, 82, 83, 84, 85, 86, 87, 88, 89, 90, 91, 92, 93, 94, 95, 96, 97, 98, 99, 100, 101, 102, 103, 104, 105, 106, 107, 108, 109, 110, 111, 112, 113, 114, 115, 116, 117, 118, 119, 120, 121, 122, 123, 124, 125, 126, 127, 128, 129, 130, 131, 132, 133, 134, 135, 136, 137, 138, 139, 140, 141, 142, 143, 144, 145, 146, 147, 148, 149, 150, 151, 152, 153, 154, 155, 156, 157, 158, 159, 160, 161, 162, 163, 164],
      "LargestImagePixelValue": [2153, 2055, 2004, 1987, 1986, 2635, 1986, 2000, 2395, 1989, 2018, 2017, 2014, 2036, 2017, 1992, 2083, 2028, 1996, 1993, 2002, 2124, 1998, 2007, 2005, 2014, 1976, 1987, 2011, 2068, 2150, 2016, 1979, 2069, 2020, 2020, 2006, 2117, 2004, 2003, 2017, 2325, 2038, 2030, 2003, 2032, 2029, 2006, 2018, 2017, 2006, 2024, 2018, 2021, 2026, 2017, 2109, 2217, 2030, 2015, 2017, 2010, 2014, 2026, 2014, 2064, 2021, 2034, 2038, 2000, 2023, 2026, 2478, 2024, 2030, 2025, 2029, 2051, 2036, 2037, 2023, 2002, 2012, 2025, 2021, 2021, 1986, 2238, 2485, 2017, 2022, 2321, 2043, 2014, 2027, 2020, 2036, 2038, 2019, 2036, 2023, 2061, 2039, 2028, 2034, 2046, 2035, 2027, 2411, 2055, 2036, 2023, 2024, 2033, 2054, 2031, 2010, 2015, 2035, 2000, 2007, 2077, 2036, 2038, 2012, 2440, 2071, 2069, 2054, 2043, 2039, 2055, 2071, 2061, 2044, 2180, 2064, 2069, 2053, 2044, 2162, 2056, 2062, 2069, 2049, 2068, 2061, 2081, 2048, 2052, 2052, 2052, 2047, 2038, 2026, 2034, 2067, 2068, 2050, 2065, 2444, 2050, 2043, 2041],
      "WindowCenter": [776.0, 773.0, 773.0, 772.0, 770.0, 773.0, 771.0, 770.0, 772.0, 770.0, 769.0, 770.0, 769.0, 770.0, 770.0, 770.0, 771.0, 770.0, 770.0, 771.0, 770.0, 771.0, 770.0, 770.0, 770.0, 770.0, 772.0, 771.0, 772.0, 771.0, 771.0, 771.0, 771.0, 771.0, 771.0, 771.0, 771.0, 771.0, 771.0, 771.0, 771.0, 771.0, 770.0, 770.0, 771.0, 770.0, 770.0, 771.0, 771.0, 771.0, 770.0, 771.0, 771.0, 771.0, 771.0, 771.0, 771.0, 771.0, 771.0, 772.0, 771.0, 771.0, 770.0, 771.0, 771.0, 771.0, 771.0, 771.0, 771.0, 772.0, 772.0, 771.0, 772.0, 770.0, 770.0, 771.0, 770.0, 770.0, 771.0, 770.0, 771.0, 771.0, 772.0, 771.0, 771.0, 773.0, 772.0, 772.0, 773.0, 771.0, 770.0, 772.0, 772.0, 771.0, 771.0, 771.0, 771.0, 771.0, 770.0, 770.0, 771.0, 770.0, 771.0, 771.0, 771.0, 771.0, 772.0, 771.0, 772.0, 770.0, 771.0, 771.0, 771.0, 771.0, 771.0, 771.0, 771.0, 772.0, 773.0, 774.0, 773.0, 772.0, 772.0, 772.0, 771.0, 773.0, 770.0, 770.0, 772.0, 772.0, 771.0, 771.0, 771.0, 773.0, 772.0, 772.0, 770.0, 771.0, 772.0, 772.0, 771.0, 770.0, 770.0, 771.0, 772.0, 771.0, 771.0, 772.0, 772.0, 772.0, 772.0, 772.0, 772.0, 772.0, 772.0, 772.0, 773.0, 773.0, 773.0, 772.0, 773.0, 771.0, 771.0, 771.0],
      "WindowWidth": [1690.0, 1678.0, 1677.0, 1675.0, 1670.0, 1681.0, 1673.0, 1670.0, 1678.0, 1670.0, 1668.0, 1669.0, 1667.0, 1670.0, 1671.0, 1671.0, 1672.0, 1670.0, 1671.0, 1673.0, 1671.0, 1672.0, 1669.0, 1669.0, 1669.0, 1671.0, 1675.0, 1673.0, 1674.0, 1674.0, 1674.0, 1673.0, 1673.0, 1673.0, 1672.0, 1674.0, 1674.0, 1673.0, 1671.0, 1673.0, 1672.0, 1675.0, 1671.0, 1672.0, 1672.0, 1671.0, 1671.0, 1674.0, 1673.0, 1673.0, 1671.0, 1673.0, 1672.0, 1672.0, 1674.0, 1674.0, 1673.0, 1674.0, 1673.0, 1674.0, 1673.0, 1672.0, 1671.0, 1672.0, 1672.0, 1673.0, 1674.0, 1673.0, 1672.0, 1674.0, 1676.0, 1671.0, 1677.0, 1669.0, 1671.0, 1672.0, 1670.0, 1671.0, 1671.0, 1670.0, 1672.0, 1673.0, 1674.0, 1671.0, 1671.0, 1676.0, 1674.0, 1675.0, 1677.0, 1672.0, 1670.0, 1677.0, 1673.0, 1672.0, 1672.0, 1672.0, 1673.0, 1672.0, 1669.0, 1669.0, 1670.0, 1670.0, 1672.0, 1671.0, 1672.0, 1673.0, 1674.0, 1672.0, 1676.0, 1670.0, 1671.0, 1671.0, 1671.0, 1670.0, 1671.0, 1673.0, 1673.0, 1673.0, 1678.0, 1679.0, 1676.0, 1673.0, 1673.0, 1673.0, 1672.0, 1677.0, 1669.0, 1670.0, 1674.0, 1673.0, 1672.0, 1670.0, 1672.0, 1676.0, 1674.0, 1673.0, 1667.0, 1671.0, 1674.0, 1673.0, 1671.0, 1669.0, 1669.0, 1671.0, 1673.0, 1670.0, 1670.0, 1673.0, 1672.0, 1673.0, 1673.0, 1674.0, 1674.0, 1673.0, 1674.0, 1674.0, 1675.0, 1675.0, 1675.0, 1673.0, 1678.0, 1672.0, 1671.0, 1669.0]
    },
    "slices": {}
  }
}