{
  "AcquisitionMatrixPE": 64,
  "AcquisitionNumber": 1,
  "AcquisitionTime": "13:51:5.607500",
  "BandwidthPerPixelPhaseEncode": 33.967,
  "BaseResolution": 64,
  "CoilCombinationMethod": "Sum of Squares",
  "CoilString": "C:HEA;HEP",
  "ConversionSoftware": "dcm2niix",
  "ConversionSoftwareVersion": "v1.0.20220720",
  "DerivedVendorReportedEchoSpacing": 0.000460005,
  "DeviceSerialNumber": "35193",
  "DwellTime": 3.1e-06,
  "EchoTime": 0.03,
  "EffectiveEchoSpacing": 0.000460005,
  "FlipAngle": 90,
  "HeudiconvVersion": "1.1.6",
  "ImageOrientationPatientDICOM": [1, 0, 0, 0, 1, 0],
  "ImageOrientationText": "Tra",
  "ImageType": [
    "ORIGINAL",
    "PRIMARY",
    "M",
    "ND",
    "MOSAIC"
],
  "ImagingFrequency": 123.254,
  "InPlanePhaseEncodingDirectionDICOM": "COL",
  "InstitutionAddress": "Xinjiekouwai Street No 19,Beijing,Haidian District,CN,100875",
  "InstitutionName": "BNU MRI Center",
  "InstitutionalDepartmentName": "Department",
  "MRAcquisitionType": "2D",
  "MagneticFieldStrength": 3,
  "Manufacturer": "Siemens",
  "ManufacturersModelName": "TrioTim",
  "MatrixCoilMode": "SENSE",
  "Modality": "MR",
  "NonlinearGradientCorrection": false,
  "PartialFourier": 1,
  "PatientPosition": "HFS",
  "PercentPhaseFOV": 100,
  "PercentSampling": 100,
  "PhaseEncodingDirection": "j-",
  "PhaseEncodingSteps": 64,
  "PhaseResolution": 1,
  "PixelBandwidth": 2520,
  "ProcedureStepDescription": "BNU_cst_2015^Guo.TaoMei",
  "ProtocolName": "ge_func_3x3x4_164",
  "PulseSequenceDetails": "%SiemensSeq%\\ep2d_bold",
  "ReceiveCoilName": "HeadMatrix",
  "ReconMatrixPE": 64,
  "RepetitionTime": 2,
  "SAR": 0.1158,
  "ScanOptions": "FS",
  "ScanningSequence": "EP",
  "SequenceName": "*epfid2d1_64",
  "SequenceVariant": "SK",
  "SeriesDescription": "ge_func_3x3x4_164",
  "SeriesNumber": 5,
  "ShimSetting": [-4514, -19293, -9833, 1125, -296, -808, -162, -44],
  "SliceThickness": 4,
  "SliceTiming": [0, 1.035, 0.06, 1.095, 0.1225, 1.155, 0.1825, 1.2175, 0.2425, 1.2775, 0.305, 1.3375, 0.365, 1.4, 0.425, 1.46, 0.4875, 1.52, 0.5475, 1.5825, 0.6075, 1.6425, 0.67, 1.7025, 0.73, 1.765, 0.79, 1.825, 0.8525, 1.885, 0.9125, 1.9475, 0.9725],
  "SoftwareVersions": "syngo MR B17",
  "SpacingBetweenSlices": 4.6,
  "StationName": "MRC35193",
  "TaskName": "CognitiveControl",
  "TotalReadoutTime": 0.0289803,
  "TxRefAmp": 357.322,
  "dcmmeta_affine": [
    [-3.125, 0.0, 0.0, 102.69879150390625],
    [0.0, 3.125, 0.0, -84.73042297363281],
    [0.0, 0.0, 4.599999904632568, -83.04578399658203],
    [0.0, 0.0, 0.0, 1.0]
],
  "dcmmeta_reorient_transform": [
    [0.0, -1.0, 0.0, 63.0],
    [1.0, 0.0, 0.0, 0.0],
    [0.0, 0.0, 1.0, 0.0],
    [0.0, 0.0, 0.0, 1.0]
],
  "dcmmeta_shape": [64, 64, 33, 164],
  "dcmmeta_slice_dim": 2,
  "dcmmeta_version": 0.6,
  "global": {
    "const": {
      "AcquisitionMatrix": [64, 0, 0, 64],
      "AngioFlag": "N",
      "BitsAllocated": 16,
      "BitsStored": 12,
      "Columns": 384,
      "EchoNumbers": 1,
      "EchoTime": 30.0,
      "EchoTrainLength": 1,
      "FlipAngle": 90.0,
      "HighBit": 11,
      "ImageOrientationPatient": [1.0, 0.0, 0.0, 0.0, 1.0, 0.0],
      "ImagePositionPatient": [-602.69879508018, -612.14457798004, -83.045783996582],
      "ImageType": [
        "ORIGINAL",
        "PRIMARY",
        "M",
        "ND",
        "MOSAIC"
],
      "ImagedNucleus": "1H",
      "ImagingFrequency": 123.253725,
      "InPlanePhaseEncodingDirection": "COL",
      "MRAcquisitionType": "2D",
      "MagneticFieldStrength": 3.0,
      "Manufacturer": "SIEMENS",
      "ManufacturerModelName": "TrioTim",
      "Modality": "MR",
      "NumberOfAverages": 1.0,
      "NumberOfPhaseEncodingSteps": 64,
      "PercentPhaseFieldOfView": 100.0,
      "PercentSampling": 100.0,
      "PerformedProcedureStepStartTime": "132856.171000",
      "PhotometricInterpretation": "MONOCHROME2",
      "PixelBandwidth": 2520.0,
      "PixelRepresentation": 0,
      "PixelSpacing": [3.125, 3.125],
      "ProtocolName": "ge_func_3x3x4_164",
      "RepetitionTime": 2000.0,
      "Rows": 384,
      "SAR": 0.11580043556544,
      "SamplesPerPixel": 1,
      "ScanOptions": "FS",
      "ScanningSequence": "EP",
      "SequenceName": "*epfid2d1_64",
      "SequenceVariant": "SK",
      "SeriesDescription": "ge_func_3x3x4_164",
      "SeriesNumber": 5,
      "SeriesTime": "135159.125000",
      "SliceLocation": -83.045783996582,
      "SliceThickness": 4.0,
      "SmallestImagePixelValue": 0,
      "SoftwareVersions": "syngo MR B17",
      "SpacingBetweenSlices": 4.6000001430511,
      "SpecificCharacterSet": "ISO_IR 100",
      "StudyID": "1",
      "StudyTime": "132856.093000",
      "TransmitCoilName": "Body",
      "VariableFlipAngleFlag": "N",
      "WindowCenterWidthExplanation": "Algo1",
      "dBdt": 0.0},
    "slices": {}
  },
  "time": {
    "samples": {
      "AcquisitionNumber": [1, 2, 3, 4, 5, 6, 7, 8, 9, 10, 11, 12, 13, 14, 15, 16, 17, 18, 19, 20, 21, 22, 23, 24, 25, 26, 27, 28, 29, 30, 31, 32, 33, 34, 35, 36, 37, 38, 39, 40, 41, 42, 43, 44, 45, 46, 47, 48, 49, 50, 51, 52, 53, 54, 55, 56, 57, 58, 59, 60, 61, 62, 63, 64, 65, 66, 67, 68, 69, 70, 71, 72, 73, 74, 75, 76, 77, 78, 79, 80, 81, 82, 83, 84, 85, 86, 87, 88, 89, 90, 91, 92, 93, 94, 95, 96, 97, 98, 99, 100, 101, 102, 103, 104, 105, 106, 107, 108, 109, 110, 111, 112, 113, 114, 115, 116, 117, 118, 119, 120, 121, 122, 123, 124, 125, 126, 127, 128, 129, 130, 131, 132, 133, 134, 135, 136, 137, 138, 139, 140, 141, 142, 143, 144, 145, 146, 147, 148, 149, 150, 151, 152, 153, 154, 155, 156, 157, 158, 159, 160, 161, 162, 163, 164],
      "AcquisitionTime": ["135105.607500", "135107.615000", "135109.622500", "135111.632500", "135113.640000", "135115.647500", "135117.655000", "135119.665000", "135121.672500", "135123.680000", "135125.687500", "135127.695000", "135129.705000", "135131.712500", "135133.720000", "135135.727500", "135137.735000", "135139.745000", "135141.752500", "135143.760000", "135145.767500", "135147.777500", "135149.785000", "135151.792500", "135153.800000", "135155.807500", "135157.817500", "135159.825000", "135201.832500", "135203.840000", "135205.847500", "135207.857500", "135209.865000", "135211.872500", "135213.880000", "135215.890000", "135217.897500", "135219.905000", "135221.912500", "135223.920000", "135225.930000", "135227.937500", "135229.945000", "135231.952500", "135233.960000", "135235.970000", "135237.977500", "135239.985000", "135241.992500", "135244.000000", "135246.010000", "135248.017500", "135250.025000", "135252.032500", "135254.042500", "135256.050000", "135258.057500", "135300.065000", "135302.072500", "135304.082500", "135306.090000", "135308.097500", "135310.105000", "135312.112500", "135314.122500", "135316.130000", "135318.137500", "135320.145000", "135322.155000", "135324.162500", "135326.170000", "135328.177500", "135330.185000", "135332.195000", "135334.202500", "135336.210000", "135338.217500", "135340.225000", "135342.235000", "135344.242500", "135346.250000", "135348.257500", "135350.267500", "135352.275000", "135354.282500", "135356.290000", "135358.297500", "135400.307500", "135402.315000", "135404.322500", "135406.330000", "135408.337500", "135410.347500", "135412.355000", "135414.362500", "135416.370000", "135418.377500", "135420.387500", "135422.395000", "135424.402500", "135426.410000", "135428.420000", "135430.427500", "135432.435000", "135434.442500", "135436.450000", "135438.460000", "135440.467500", "135442.475000", "135444.482500", "135446.490000", "135448.500000", "135450.507500", "135452.515000", "135454.522500", "135456.532500", "135458.540000", "135500.547500", "135502.555000", "135504.562500", "135506.572500", "135508.580000", "135510.587500", "135512.595000", "135514.602500", "135516.612500", "135518.620000", "135520.627500", "135522.635000", "135524.645000", "135526.652500", "135528.660000", "135530.667500", "135532.675000", "135534.685000", "135536.692500", "135538.700000", "135540.707500", "135542.715000", "135544.725000", "135546.732500", "135548.740000", "135550.747500", "135552.755000", "135554.765000", "135556.772500", "135558.780000", "135600.787500", "135602.797500", "135604.805000", "135606.812500", "135608.820000", "135610.827500", "135612.837500", "135614.845000", "135616.852500", "135618.860000", "135620.867500", "135622.877500", "135624.885000", "135626.892500", "135628.900000", "135630.910000", "135632.917500"],
      "ContentTime": ["135159.125000", "135159.125000", "135159.125000", "135159.140000", "135159.140000", "135159.140000", "135159.140000", "135159.140000", "135159.140000", "135159.140000", "135159.140000", "135159.140000", "135159.156000", "135159.156000", "135159.156000", "135159.156000", "135159.156000", "135159.171000", "135159.171000", "135159.171000", "135159.171000", "135159.171000", "135159.171000", "135159.171000", "135159.171000", "135159.187000", "135239.125000", "135239.125000", "135239.125000", "135239.125000", "135239.125000", "135239.125000", "135239.125000", "135239.140000", "135239.140000", "135239.140000", "135239.140000", "135239.140000", "135239.140000", "135239.140000", "135239.140000", "135239.156000", "135239.156000", "135239.156000", "135239.156000", "135239.156000", "135319.125000", "135319.125000", "135319.125000", "135319.125000", "135319.125000", "135319.140000", "135319.140000", "135319.140000", "135319.140000", "135319.156000", "135319.156000", "135319.156000", "135319.156000", "135319.156000", "135319.171000", "135319.171000", "135319.171000", "135319.171000", "135319.171000", "135319.171000", "135359.125000", "135359.125000", "135359.125000", "135359.125000", "135359.125000", "135359.125000", "135359.125000", "135359.140000", "135359.140000", "135359.140000", "135359.140000", "135359.140000", "135359.140000", "135359.156000", "135359.156000", "135359.156000", "135359.156000", "135359.156000", "135359.156000", "135359.156000", "135439.125000", "135439.125000", "135439.125000", "135439.140000", "135439.140000", "135439.140000", "135439.140000", "135439.156000", "135439.156000", "135439.156000", "135439.156000", "135439.156000", "135439.156000", "135439.171000", "135439.171000", "135439.171000", "135439.171000", "135439.171000", "135439.171000", "135439.171000", "135519.125000", "135519.125000", "135519.125000", "135519.125000", "135519.125000", "135519.125000", "135519.125000", "135519.140000", "135519.140000", "135519.140000", "135519.140000", "135519.140000", "135519.140000", "135519.140000", "135519.140000", "135519.156000", "135519.156000", "135519.156000", "135519.156000", "135519.156000", "135559.125000", "135559.125000", "135559.125000", "135559.125000", "135559.125000", "135559.140000", "135559.140000", "135559.140000", "135559.140000", "135559.140000", "135559.140000", "135559.140000", "135559.156000", "135559.156000", "135559.156000", "135559.156000", "135559.156000", "135559.171000", "135559.171000", "135559.171000", "135634.093000", "135634.093000", "135634.093000", "135634.093000", "135634.093000", "135634.109000", "135634.109000", "135634.109000", "135634.109000", "135634.109000", "135634.109000", "135634.109000", "135634.109000", "135634.125000", "135634.125000", "135634.125000", "135634.125000", "135634.125000"],
      "InstanceCreationTime": ["135159.125000", "135159.125000", "135159.125000", "135159.140000", "135159.140000", "135159.140000", "135159.140000", "135159.140000", "135159.140000", "135159.140000", "135159.140000", "135159.140000", "135159.156000", "135159.156000", "135159.156000", "135159.156000", "135159.156000", "135159.171000", "135159.171000", "135159.171000", "135159.171000", "135159.171000", "135159.171000", "135159.171000", "135159.171000", "135159.187000", "135239.125000", "135239.125000", "135239.125000", "135239.125000", "135239.125000", "135239.125000", "135239.125000", "135239.140000", "135239.140000", "135239.140000", "135239.140000", "135239.140000", "135239.140000", "135239.140000", "135239.140000", "135239.156000", "135239.156000", "135239.156000", "135239.156000", "135239.156000", "135319.125000", "135319.125000", "135319.125000", "135319.125000", "135319.125000", "135319.140000", "135319.140000", "135319.140000", "135319.140000", "135319.156000", "135319.156000", "135319.156000", "135319.156000", "135319.156000", "135319.171000", "135319.171000", "135319.171000", "135319.171000", "135319.171000", "135319.171000", "135359.125000", "135359.125000", "135359.125000", "135359.125000", "135359.125000", "135359.125000", "135359.125000", "135359.140000", "135359.140000", "135359.140000", "135359.140000", "135359.140000", "135359.140000", "135359.156000", "135359.156000", "135359.156000", "135359.156000", "135359.156000", "135359.156000", "135359.156000", "135439.125000", "135439.125000", "135439.125000", "135439.140000", "135439.140000", "135439.140000", "135439.140000", "135439.156000", "135439.156000", "135439.156000", "135439.156000", "135439.156000", "135439.156000", "135439.171000", "135439.171000", "135439.171000", "135439.171000", "135439.171000", "135439.171000", "135439.171000", "135519.125000", "135519.125000", "135519.125000", "135519.125000", "135519.125000", "135519.125000", "135519.125000", "135519.140000", "135519.140000", "135519.140000", "135519.140000", "135519.140000", "135519.140000", "135519.140000", "135519.140000", "135519.156000", "135519.156000", "135519.156000", "135519.156000", "135519.156000", "135559.125000", "135559.125000", "135559.125000", "135559.125000", "135559.125000", "135559.140000", "135559.140000", "135559.140000", "135559.140000", "135559.140000", "135559.140000", "135559.140000", "135559.156000", "135559.156000", "135559.156000", "135559.156000", "135559.156000", "135559.171000", "135559.171000", "135559.171000", "135634.093000", "135634.093000", "135634.093000", "135634.093000", "135634.093000", "135634.109000", "135634.109000", "135634.109000", "135634.109000", "135634.109000", "135634.109000", "135634.109000", "135634.109000", "135634.125000", "135634.125000", "135634.125000", "135634.125000", "135634.125000"],
      "InstanceNumber": [1, 2, 3, 4, 5, 6, 7, 8, 9, 10, 11, 12, 13, 14, 15, 16, 17, 18, 19, 20, 21, 22, 23, 24, 25, 26, 27, 28, 29, 30, 31, 32, 33, 34, 35, 36, 37, 38, 39, 40, 41, 42, 43, 44, 45, 46, 47, 48, 49, 50, 51, 52, 53, 54, 55, 56, 57, 58, 59, 60, 61, 62, 63, 64, 65, 66, 67, 68, 69, 70, 71, 72, 73, 74, 75, 76, 77, 78, 79, 80, 81, 82, 83, 84, 85, 86, 87, 88, 89, 90, 91, 92, 93, 94, 95, 96, 97, 98, 99, 100, 101, 102, 103, 104, 105, 106, 107, 108, 109, 110, 111, 112, 113, 114, 115, 116, 117, 118, 119, 120, 121, 122, 123, 124, 125, 126, 127, 128, 129, 130, 131, 132, 133, 134, 135, 136, 137, 138, 139, 140, 141, 142, 143, 144, 145, 146, 147, 148, 149, 150, 151, 152, 153, 154, 155, 156, 157, 158, 159, 160, 161, 162, 163, 164],
      "LargestImagePixelValue": [2161, 2221, 2505, 2029, 2040, 2049, 2062, 2040, 2038, 2023, 2019, 2018, 1992, 2288, 2025, 2012, 1996, 2447, 2030, 2022, 2042, 2028, 2020, 2060, 2034, 2034, 2033, 2031, 2042, 2011, 2038, 2016, 2028, 2013, 2029, 2017, 2035, 2010, 2046, 2013, 2048, 2029, 2012, 2006, 1997, 2025, 2033, 2031, 2007, 2340, 2049, 2027, 2027, 2030, 2046, 2018, 2017, 2039, 2029, 2019, 2017, 2013, 2022, 2025, 2291, 2036, 2052, 2006, 2023, 2020, 2021, 2021, 2018, 2007, 2103, 2174, 2025, 2009, 2278, 2021, 2026, 2019, 2029, 2034, 2018, 2030, 2052, 2027, 2021, 2021, 2012, 2168, 2042, 2012, 2012, 2079, 2330, 2029, 2043, 2007, 2011, 2002, 2028, 2029, 2026, 2033, 2031, 2048, 2031, 2016, 2030, 2010, 2033, 2105, 2011, 2040, 2005, 2010, 2010, 2026, 1999, 2021, 2019, 2340, 2036, 2025, 2034, 2003, 2002, 2014, 2064, 2018, 2006, 2030, 2025, 2047, 2024, 2111, 2025, 2020, 2027, 2025, 2023, 2016, 2020, 2017, 1991, 2077, 2010, 2023, 2026, 2012, 1995, 2411, 2042, 2037, 2012, 2024, 2023, 2032, 2019, 2028, 1993, 2003],
      "WindowCenter": [776.0, 773.0, 773.0, 770.0, 770.0, 770.0, 770.0, 771.0, 771.0, 771.0, 772.0, 772.0, 772.0, 772.0, 771.0, 772.0, 771.0, 773.0, 771.0, 771.0, 772.0, 771.0, 771.0, 771.0, 771.0, 771.0, 771.0, 771.0, 772.0, 772.0, 771.0, 772.0, 772.0, 772.0, 771.0, 771.0, 771.0, 771.0, 771.0, 771.0, 771.0, 772.0, 773.0, 772.0, 771.0, 771.0, 772.0, 773.0, 772.0, 772.0, 771.0, 772.0, 772.0, 772.0, 772.0, 773.0, 773.0, 773.0, 772.0, 771.0, 772.0, 772.0, 772.0, 772.0, 774.0, 772.0, 772.0, 771.0, 771.0, 772.0, 772.0, 772.0, 772.0, 773.0, 773.0, 773.0, 772.0, 772.0, 772.0, 771.0, 771.0, 772.0, 772.0, 772.0, 773.0, 772.0, 772.0, 772.0, 772.0, 773.0, 773.0, 773.0, 772.0, 773.0, 774.0, 773.0, 773.0, 771.0, 771.0, 773.0, 772.0, 771.0, 772.0, 772.0, 773.0, 773.0, 773.0, 773.0, 772.0, 772.0, 773.0, 773.0, 773.0, 773.0, 772.0, 773.0, 773.0, 773.0, 772.0, 773.0, 773.0, 773.0, 773.0, 774.0, 772.0, 773.0, 772.0, 772.0, 773.0, 773.0, 773.0, 773.0, 772.0, 772.0, 772.0, 773.0, 773.0, 772.0, 771.0, 772.0, 773.0, 773.0, 773.0, 772.0, 773.0, 774.0, 773.0, 773.0, 772.0, 772.0, 773.0, 774.0, 773.0, 775.0, 772.0, 772.0, 772.0, 772.0, 773.0, 773.0, 773.0, 774.0, 774.0, 773.0],
      "WindowWidth": [1687.0, 1676.0, 1678.0, 1668.0, 1668.0, 1667.0, 1668.0, 1670.0, 1671.0, 1672.0, 1673.0, 1673.0, 1672.0, 1674.0, 1671.0, 1673.0, 1671.0, 1678.0, 1671.0, 1671.0, 1673.0, 1671.0, 1670.0, 1670.0, 1671.0, 1671.0, 1671.0, 1671.0, 1672.0, 1672.0, 1672.0, 1674.0, 1675.0, 1672.0, 1670.0, 1670.0, 1670.0, 1671.0, 1672.0, 1672.0, 1672.0, 1674.0, 1675.0, 1672.0, 1672.0, 1672.0, 1674.0, 1676.0, 1672.0, 1676.0, 1671.0, 1673.0, 1672.0, 1672.0, 1672.0, 1675.0, 1675.0, 1675.0, 1672.0, 1672.0, 1672.0, 1674.0, 1674.0, 1673.0, 1679.0, 1673.0, 1672.0, 1669.0, 1671.0, 1672.0, 1673.0, 1672.0, 1674.0, 1676.0, 1676.0, 1676.0, 1674.0, 1672.0, 1675.0, 1669.0, 1670.0, 1672.0, 1673.0, 1674.0, 1676.0, 1674.0, 1674.0, 1673.0, 1674.0, 1677.0, 1675.0, 1677.0, 1673.0, 1677.0, 1677.0, 1676.0, 1677.0, 1670.0, 1671.0, 1675.0, 1673.0, 1672.0, 1673.0, 1673.0, 1675.0, 1676.0, 1675.0, 1675.0, 1673.0, 1673.0, 1675.0, 1676.0, 1675.0, 1675.0, 1674.0, 1676.0, 1677.0, 1676.0, 1674.0, 1674.0, 1676.0, 1676.0, 1675.0, 1679.0, 1674.0, 1676.0, 1674.0, 1673.0, 1675.0, 1675.0, 1675.0, 1674.0, 1674.0, 1674.0, 1673.0, 1675.0, 1674.0, 1674.0, 1671.0, 1673.0, 1675.0, 1676.0, 1676.0, 1674.0, 1676.0, 1678.0, 1677.0, 1677.0, 1673.0, 1673.0, 1675.0, 1677.0, 1676.0, 1682.0, 1673.0, 1673.0, 1674.0, 1674.0, 1675.0, 1674.0, 1675.0, 1678.0, 1678.0, 1676.0]
    },
    "slices": {}
  }
}