{
  "AcquisitionMatrixPE": 64,
  "AcquisitionNumber": 1,
  "AcquisitionTime": "14:51:33.775000",
  "BandwidthPerPixelPhaseEncode": 33.967,
  "BaseResolution": 64,
  "CoilCombinationMethod": "Sum of Squares",
  "CoilString": "C:HEA;HEP",
  "ConversionSoftware": "dcm2niix",
  "ConversionSoftwareVersion": "v1.0.20220720",
  "DerivedVendorReportedEchoSpacing": 0.000460005,
  "DeviceSerialNumber": "35193",
  "DwellTime": 3.1e-06,
  "EchoTime": 0.03,
  "EffectiveEchoSpacing": 0.000460005,
  "FlipAngle": 90,
  "HeudiconvVersion": "1.1.6",
  "ImageOrientationPatientDICOM": [1, 0, 0, 0, 1, 0],
  "ImageOrientationText": "Tra",
  "ImageType": [
    "ORIGINAL",
    "PRIMARY",
    "M",
    "ND",
    "MOSAIC"
],
  "ImagingFrequency": 123.254,
  "InPlanePhaseEncodingDirectionDICOM": "COL",
  "InstitutionAddress": "Xinjiekouwai Street No 19,Beijing,Haidian District,CN,100875",
  "InstitutionName": "BNU MRI Center",
  "InstitutionalDepartmentName": "Department",
  "MRAcquisitionType": "2D",
  "MagneticFieldStrength": 3,
  "Manufacturer": "Siemens",
  "ManufacturersModelName": "TrioTim",
  "MatrixCoilMode": "SENSE",
  "Modality": "MR",
  "NonlinearGradientCorrection": false,
  "PartialFourier": 1,
  "PatientPosition": "HFS",
  "PercentPhaseFOV": 100,
  "PercentSampling": 100,
  "PhaseEncodingDirection": "j-",
  "PhaseEncodingSteps": 64,
  "PhaseResolution": 1,
  "PixelBandwidth": 2520,
  "ProcedureStepDescription": "BNU_cst_2015^Guo.TaoMei",
  "ProtocolName": "ge_func_3x3x4_164",
  "PulseSequenceDetails": "%SiemensSeq%\\ep2d_bold",
  "ReceiveCoilName": "HeadMatrix",
  "ReconMatrixPE": 64,
  "RepetitionTime": 2,
  "SAR": 0.13826,
  "ScanOptions": "FS",
  "ScanningSequence": "EP",
  "SequenceName": "*epfid2d1_64",
  "SequenceVariant": "SK",
  "SeriesDescription": "ge_func_3x3x4_164",
  "SeriesNumber": 4,
  "ShimSetting": [-4488, -19509, -9832, 1067, -241, -668, -137, -75],
  "SliceThickness": 4,
  "SliceTiming": [0, 1.0325, 0.06, 1.095, 0.12, 1.155, 0.1825, 1.215, 0.2425, 1.2775, 0.3025, 1.3375, 0.365, 1.3975, 0.425, 1.46, 0.485, 1.52, 0.5475, 1.58, 0.6075, 1.6425, 0.6675, 1.7025, 0.73, 1.7625, 0.79, 1.825, 0.85, 1.885, 0.9125, 1.945, 0.9725],
  "SoftwareVersions": "syngo MR B17",
  "SpacingBetweenSlices": 4.6,
  "StationName": "MRC35193",
  "TaskName": "CognitiveControl",
  "TotalReadoutTime": 0.0289803,
  "TxRefAmp": 312.009,
  "dcmmeta_affine": [
    [-3.125, 0.0, 0.0, 98.65060424804688],
    [0.0, 3.125, 0.0, -94.85090637207031],
    [0.0, 0.0, 4.599999904632568, -54.03373336791992],
    [0.0, 0.0, 0.0, 1.0]
],
  "dcmmeta_reorient_transform": [
    [0.0, -1.0, 0.0, 63.0],
    [1.0, 0.0, 0.0, 0.0],
    [0.0, 0.0, 1.0, 0.0],
    [0.0, 0.0, 0.0, 1.0]
],
  "dcmmeta_shape": [64, 64, 33, 164],
  "dcmmeta_slice_dim": 2,
  "dcmmeta_version": 0.6,
  "global": {
    "const": {
      "AcquisitionMatrix": [64, 0, 0, 64],
      "AngioFlag": "N",
      "BitsAllocated": 16,
      "BitsStored": 12,
      "Columns": 384,
      "EchoNumbers": 1,
      "EchoTime": 30.0,
      "EchoTrainLength": 1,
      "FlipAngle": 90.0,
      "HighBit": 11,
      "ImageOrientationPatient": [1.0, 0.0, 0.0, 0.0, 1.0, 0.0],
      "ImagePositionPatient": [-598.65060245991, -602.02409648895, -54.03373336792],
      "ImageType": [
        "ORIGINAL",
        "PRIMARY",
        "M",
        "ND",
        "MOSAIC"
],
      "ImagedNucleus": "1H",
      "ImagingFrequency": 123.253949,
      "InPlanePhaseEncodingDirection": "COL",
      "MRAcquisitionType": "2D",
      "MagneticFieldStrength": 3.0,
      "Manufacturer": "SIEMENS",
      "ManufacturerModelName": "TrioTim",
      "Modality": "MR",
      "NumberOfAverages": 1.0,
      "NumberOfPhaseEncodingSteps": 64,
      "PercentPhaseFieldOfView": 100.0,
      "PercentSampling": 100.0,
      "PerformedProcedureStepStartTime": "143523.953000",
      "PhotometricInterpretation": "MONOCHROME2",
      "PixelBandwidth": 2520.0,
      "PixelRepresentation": 0,
      "PixelSpacing": [3.125, 3.125],
      "ProtocolName": "ge_func_3x3x4_164",
      "RepetitionTime": 2000.0,
      "Rows": 384,
      "SAR": 0.13826036920662,
      "SamplesPerPixel": 1,
      "ScanOptions": "FS",
      "ScanningSequence": "EP",
      "SequenceName": "*epfid2d1_64",
      "SequenceVariant": "SK",
      "SeriesDescription": "ge_func_3x3x4_164",
      "SeriesNumber": 4,
      "SeriesTime": "145230.296000",
      "SliceLocation": -54.03373336792,
      "SliceThickness": 4.0,
      "SmallestImagePixelValue": 0,
      "SoftwareVersions": "syngo MR B17",
      "SpacingBetweenSlices": 4.6000000238419,
      "SpecificCharacterSet": "ISO_IR 100",
      "StudyID": "1",
      "StudyTime": "143523.875000",
      "TransmitCoilName": "Body",
      "VariableFlipAngleFlag": "N",
      "WindowCenterWidthExplanation": "Algo1",
      "dBdt": 0.0},
    "slices": {}
  },
  "time": {
    "samples": {
      "AcquisitionNumber": [1, 2, 3, 4, 5, 6, 7, 8, 9, 10, 11, 12, 13, 14, 15, 16, 17, 18, 19, 20, 21, 22, 23, 24, 25, 26, 27, 28, 29, 30, 31, 32, 33, 34, 35, 36, 37, 38, 39, 40, 41, 42, 43, 44, 45, 46, 47, 48, 49, 50, 51, 52, 53, 54, 55, 56, 57, 58, 59, 60, 61, 62, 63, 64, 65, 66, 67, 68, 69, 70, 71, 72, 73, 74, 75, 76, 77, 78, 79, 80, 81, 82, 83, 84, 85, 86, 87, 88, 89, 90, 91, 92, 93, 94, 95, 96, 97, 98, 99, 100, 101, 102, 103, 104, 105, 106, 107, 108, 109, 110, 111, 112, 113, 114, 115, 116, 117, 118, 119, 120, 121, 122, 123, 124, 125, 126, 127, 128, 129, 130, 131, 132, 133, 134, 135, 136, 137, 138, 139, 140, 141, 142, 143, 144, 145, 146, 147, 148, 149, 150, 151, 152, 153, 154, 155, 156, 157, 158, 159, 160, 161, 162, 163, 164],
      "AcquisitionTime": ["145133.775000", "145135.782500", "145137.790000", "145139.797500", "145141.807500", "145143.815000", "145145.822500", "145147.830000", "145149.837500", "145151.847500", "145153.855000", "145155.862500", "145157.870000", "145159.880000", "145201.887500", "145203.895000", "145205.902500", "145207.910000", "145209.920000", "145211.927500", "145213.935000", "145215.942500", "145217.950000", "145219.960000", "145221.967500", "145223.975000", "145225.982500", "145227.992500", "145230.000000", "145232.007500", "145234.015000", "145236.022500", "145238.032500", "145240.040000", "145242.047500", "145244.055000", "145246.062500", "145248.072500", "145250.080000", "145252.087500", "145254.095000", "145256.102500", "145258.112500", "145300.120000", "145302.127500", "145304.135000", "145306.145000", "145308.152500", "145310.160000", "145312.167500", "145314.175000", "145316.185000", "145318.192500", "145320.200000", "145322.207500", "145324.215000", "145326.225000", "145328.232500", "145330.240000", "145332.247500", "145334.257500", "145336.265000", "145338.272500", "145340.280000", "145342.287500", "145344.297500", "145346.305000", "145348.312500", "145350.320000", "145352.327500", "145354.337500", "145356.345000", "145358.352500", "145400.360000", "145402.370000", "145404.377500", "145406.385000", "145408.392500", "145410.400000", "145412.410000", "145414.417500", "145416.425000", "145418.432500", "145420.440000", "145422.450000", "145424.457500", "145426.465000", "145428.472500", "145430.480000", "145432.490000", "145434.497500", "145436.505000", "145438.512500", "145440.522500", "145442.530000", "145444.537500", "145446.545000", "145448.552500", "145450.562500", "145452.570000", "145454.577500", "145456.585000", "145458.592500", "145500.602500", "145502.610000", "145504.617500", "145506.625000", "145508.635000", "145510.642500", "145512.650000", "145514.657500", "145516.665000", "145518.675000", "145520.682500", "145522.690000", "145524.697500", "145526.705000", "145528.715000", "145530.722500", "145532.730000", "145534.737500", "145536.747500", "145538.755000", "145540.762500", "145542.770000", "145544.777500", "145546.787500", "145548.795000", "145550.802500", "145552.810000", "145554.817500", "145556.827500", "145558.835000", "145600.842500", "145602.850000", "145604.860000", "145606.867500", "145608.875000", "145610.882500", "145612.890000", "145614.900000", "145616.907500", "145618.915000", "145620.922500", "145622.930000", "145624.940000", "145626.947500", "145628.955000", "145630.962500", "145632.970000", "145634.980000", "145636.987500", "145638.995000", "145641.002500", "145643.012500", "145645.020000", "145647.027500", "145649.035000", "145651.042500", "145653.052500", "145655.060000", "145657.067500", "145659.075000", "145701.082500"],
      "ContentTime": ["145230.296000", "145230.296000", "145230.296000", "145230.312000", "145230.312000", "145230.312000", "145230.312000", "145230.312000", "145230.312000", "145230.312000", "145230.312000", "145230.328000", "145230.328000", "145230.328000", "145230.328000", "145230.328000", "145230.328000", "145230.328000", "145230.328000", "145230.343000", "145230.343000", "145230.343000", "145230.343000", "145230.343000", "145230.359000", "145230.375000", "145230.375000", "145310.296000", "145310.296000", "145310.296000", "145310.312000", "145310.312000", "145310.312000", "145310.328000", "145310.328000", "145310.328000", "145310.328000", "145310.328000", "145310.328000", "145310.328000", "145310.328000", "145310.343000", "145310.343000", "145310.343000", "145310.343000", "145310.343000", "145310.343000", "145350.296000", "145350.296000", "145350.296000", "145350.296000", "145350.296000", "145350.296000", "145350.296000", "145350.312000", "145350.312000", "145350.312000", "145350.312000", "145350.328000", "145350.328000", "145350.328000", "145350.328000", "145350.328000", "145350.328000", "145350.328000", "145350.328000", "145350.343000", "145430.296000", "145430.296000", "145430.296000", "145430.296000", "145430.296000", "145430.312000", "145430.312000", "145430.312000", "145430.328000", "145430.328000", "145430.328000", "145430.328000", "145430.328000", "145430.328000", "145430.328000", "145430.328000", "145430.343000", "145430.343000", "145430.343000", "145430.343000", "145510.296000", "145510.296000", "145510.296000", "145510.296000", "145510.312000", "145510.312000", "145510.312000", "145510.312000", "145510.312000", "145510.328000", "145510.328000", "145510.328000", "145510.328000", "145510.343000", "145510.343000", "145510.343000", "145510.343000", "145510.343000", "145510.343000", "145510.343000", "145550.296000", "145550.296000", "145550.296000", "145550.296000", "145550.296000", "145550.296000", "145550.296000", "145550.296000", "145550.312000", "145550.312000", "145550.312000", "145550.312000", "145550.312000", "145550.312000", "145550.312000", "145550.328000", "145550.328000", "145550.328000", "145550.328000", "145550.328000", "145630.296000", "145630.296000", "145630.296000", "145630.296000", "145630.296000", "145630.296000", "145630.312000", "145630.312000", "145630.312000", "145630.312000", "145630.312000", "145630.312000", "145630.312000", "145630.328000", "145630.328000", "145630.328000", "145630.328000", "145630.328000", "145630.328000", "145630.328000", "145702.343000", "145702.343000", "145702.343000", "145702.343000", "145702.343000", "145702.359000", "145702.359000", "145702.359000", "145702.359000", "145702.375000", "145702.375000", "145702.375000", "145702.375000", "145702.375000", "145702.375000", "145702.375000", "145702.375000"],
      "InstanceCreationTime": ["145230.296000", "145230.296000", "145230.296000", "145230.312000", "145230.312000", "145230.312000", "145230.312000", "145230.312000", "145230.312000", "145230.312000", "145230.312000", "145230.328000", "145230.328000", "145230.328000", "145230.328000", "145230.328000", "145230.328000", "145230.328000", "145230.328000", "145230.343000", "145230.343000", "145230.343000", "145230.343000", "145230.343000", "145230.359000", "145230.375000", "145230.375000", "145310.296000", "145310.296000", "145310.296000", "145310.312000", "145310.312000", "145310.312000", "145310.328000", "145310.328000", "145310.328000", "145310.328000", "145310.328000", "145310.328000", "145310.328000", "145310.328000", "145310.343000", "145310.343000", "145310.343000", "145310.343000", "145310.343000", "145310.343000", "145350.296000", "145350.296000", "145350.296000", "145350.296000", "145350.296000", "145350.296000", "145350.296000", "145350.312000", "145350.312000", "145350.312000", "145350.312000", "145350.328000", "145350.328000", "145350.328000", "145350.328000", "145350.328000", "145350.328000", "145350.328000", "145350.328000", "145350.343000", "145430.296000", "145430.296000", "145430.296000", "145430.296000", "145430.296000", "145430.312000", "145430.312000", "145430.312000", "145430.328000", "145430.328000", "145430.328000", "145430.328000", "145430.328000", "145430.328000", "145430.328000", "145430.328000", "145430.343000", "145430.343000", "145430.343000", "145430.343000", "145510.296000", "145510.296000", "145510.296000", "145510.296000", "145510.312000", "145510.312000", "145510.312000", "145510.312000", "145510.312000", "145510.328000", "145510.328000", "145510.328000", "145510.328000", "145510.343000", "145510.343000", "145510.343000", "145510.343000", "145510.343000", "145510.343000", "145510.343000", "145550.296000", "145550.296000", "145550.296000", "145550.296000", "145550.296000", "145550.296000", "145550.296000", "145550.296000", "145550.312000", "145550.312000", "145550.312000", "145550.312000", "145550.312000", "145550.312000", "145550.312000", "145550.328000", "145550.328000", "145550.328000", "145550.328000", "145550.328000", "145630.296000", "145630.296000", "145630.296000", "145630.296000", "145630.296000", "145630.296000", "145630.312000", "145630.312000", "145630.312000", "145630.312000", "145630.312000", "145630.312000", "145630.312000", "145630.328000", "145630.328000", "145630.328000", "145630.328000", "145630.328000", "145630.328000", "145630.328000", "145702.343000", "145702.343000", "145702.343000", "145702.343000", "145702.343000", "145702.359000", "145702.359000", "145702.359000", "145702.359000", "145702.375000", "145702.375000", "145702.375000", "145702.375000", "145702.375000", "145702.375000", "145702.375000", "145702.375000"],
      "InstanceNumber": [1, 2, 3, 4, 5, 6, 7, 8, 9, 10, 11, 12, 13, 14, 15, 16, 17, 18, 19, 20, 21, 22, 23, 24, 25, 26, 27, 28, 29, 30, 31, 32, 33, 34, 35, 36, 37, 38, 39, 40, 41, 42, 43, 44, 45, 46, 47, 48, 49, 50, 51, 52, 53, 54, 55, 56, 57, 58, 59, 60, 61, 62, 63, 64, 65, 66, 67, 68, 69, 70, 71, 72, 73, 74, 75, 76, 77, 78, 79, 80, 81, 82, 83, 84, 85, 86, 87, 88, 89, 90, 91, 92, 93, 94, 95, 96, 97, 98, 99, 100, 101, 102, 103, 104, 105, 106, 107, 108, 109, 110, 111, 112, 113, 114, 115, 116, 117, 118, 119, 120, 121, 122, 123, 124, 125, 126, 127, 128, 129, 130, 131, 132, 133, 134, 135, 136, 137, 138, 139, 140, 141, 142, 143, 144, 145, 146, 147, 148, 149, 150, 151, 152, 153, 154, 155, 156, 157, 158, 159, 160, 161, 162, 163, 164],
      "LargestImagePixelValue": [2163, 2060, 2036, 2017, 2010, 2025, 2018, 2001, 2008, 2014, 2005, 2001, 2000, 2015, 2016, 2031, 2021, 2030, 2020, 2050, 2029, 2026, 2036, 2048, 2030, 2049, 2052, 2042, 2026, 2030, 2029, 2037, 2037, 2046, 2040, 2028, 2035, 2046, 2057, 2051, 2049, 2064, 2057, 2042, 2046, 2044, 2055, 2053, 2046, 2065, 2063, 2066, 2082, 2068, 2066, 2078, 2074, 2078, 2085, 2083, 2060, 2088, 2067, 2078, 2075, 2083, 2091, 2070, 2083, 2088, 2084, 2082, 2088, 2090, 2086, 2095, 2077, 2093, 2098, 2100, 2097, 2098, 2105, 2100, 2101, 2104, 2098, 2082, 2089, 2098, 2090, 2101, 2095, 2095, 2116, 2096, 2103, 2096, 2086, 2108, 2108, 2095, 2101, 2110, 2100, 2115, 2127, 2093, 2117, 2129, 2120, 2122, 2120, 2117, 2127, 2124, 2127, 2124, 2127, 2126, 2117, 2134, 2114, 2109, 2137, 2127, 2122, 2117, 2107, 2112, 2120, 2126, 2122, 2128, 2128, 2114, 2112, 2128, 2130, 2118, 2137, 2129, 2139, 2122, 2122, 2142, 2124, 2132, 2135, 2140, 2118, 2131, 2146, 2140, 2135, 2150, 2121, 2131, 2138, 2128, 2135, 2139, 2136, 2135],
      "WindowCenter": [748.0, 745.0, 745.0, 744.0, 744.0, 743.0, 743.0, 743.0, 743.0, 744.0, 744.0, 744.0, 743.0, 744.0, 744.0, 745.0, 745.0, 745.0, 745.0, 746.0, 746.0, 745.0, 745.0, 742.0, 741.0, 741.0, 742.0, 743.0, 744.0, 745.0, 745.0, 745.0, 745.0, 745.0, 744.0, 745.0, 745.0, 745.0, 745.0, 746.0, 747.0, 746.0, 747.0, 746.0, 746.0, 745.0, 745.0, 745.0, 744.0, 745.0, 746.0, 746.0, 745.0, 745.0, 745.0, 746.0, 745.0, 746.0, 746.0, 746.0, 746.0, 746.0, 745.0, 745.0, 745.0, 745.0, 745.0, 745.0, 745.0, 745.0, 746.0, 746.0, 746.0, 746.0, 746.0, 746.0, 745.0, 746.0, 746.0, 747.0, 747.0, 747.0, 746.0, 746.0, 745.0, 746.0, 746.0, 746.0, 745.0, 745.0, 745.0, 745.0, 745.0, 745.0, 746.0, 745.0, 745.0, 746.0, 746.0, 746.0, 746.0, 746.0, 746.0, 746.0, 746.0, 746.0, 747.0, 748.0, 748.0, 747.0, 746.0, 746.0, 746.0, 746.0, 747.0, 746.0, 747.0, 746.0, 747.0, 747.0, 747.0, 746.0, 746.0, 745.0, 746.0, 746.0, 746.0, 747.0, 746.0, 746.0, 747.0, 747.0, 747.0, 746.0, 747.0, 746.0, 746.0, 747.0, 747.0, 747.0, 747.0, 748.0, 748.0, 748.0, 747.0, 747.0, 747.0, 747.0, 747.0, 747.0, 747.0, 746.0, 746.0, 746.0, 746.0, 746.0, 746.0, 746.0, 747.0, 747.0, 747.0, 747.0, 747.0, 747.0],
      "WindowWidth": [1649.0, 1640.0, 1638.0, 1635.0, 1636.0, 1633.0, 1634.0, 1633.0, 1632.0, 1634.0, 1635.0, 1636.0, 1633.0, 1635.0, 1636.0, 1637.0, 1639.0, 1639.0, 1640.0, 1642.0, 1641.0, 1640.0, 1637.0, 1631.0, 1626.0, 1627.0, 1631.0, 1633.0, 1635.0, 1637.0, 1638.0, 1638.0, 1639.0, 1637.0, 1637.0, 1638.0, 1638.0, 1639.0, 1640.0, 1642.0, 1643.0, 1643.0, 1644.0, 1643.0, 1642.0, 1639.0, 1638.0, 1637.0, 1636.0, 1639.0, 1640.0, 1641.0, 1639.0, 1637.0, 1639.0, 1640.0, 1640.0, 1641.0, 1641.0, 1641.0, 1640.0, 1640.0, 1637.0, 1637.0, 1638.0, 1638.0, 1639.0, 1637.0, 1637.0, 1640.0, 1642.0, 1641.0, 1642.0, 1642.0, 1640.0, 1640.0, 1640.0, 1641.0, 1642.0, 1643.0, 1644.0, 1644.0, 1641.0, 1640.0, 1639.0, 1641.0, 1641.0, 1640.0, 1639.0, 1638.0, 1637.0, 1637.0, 1637.0, 1639.0, 1640.0, 1639.0, 1640.0, 1640.0, 1641.0, 1642.0, 1643.0, 1641.0, 1642.0, 1641.0, 1640.0, 1642.0, 1644.0, 1647.0, 1647.0, 1645.0, 1642.0, 1640.0, 1640.0, 1641.0, 1643.0, 1642.0, 1642.0, 1642.0, 1644.0, 1646.0, 1645.0, 1643.0, 1640.0, 1639.0, 1641.0, 1640.0, 1642.0, 1643.0, 1642.0, 1643.0, 1643.0, 1643.0, 1643.0, 1642.0, 1643.0, 1642.0, 1641.0, 1643.0, 1644.0, 1644.0, 1644.0, 1646.0, 1646.0, 1646.0, 1644.0, 1643.0, 1643.0, 1644.0, 1645.0, 1644.0, 1644.0, 1642.0, 1641.0, 1642.0, 1642.0, 1642.0, 1641.0, 1642.0, 1645.0, 1643.0, 1644.0, 1645.0, 1645.0, 1643.0]
    },
    "slices": {}
  }
}