{
  "AcquisitionMatrixPE": 64,
  "AcquisitionNumber": 1,
  "AcquisitionTime": "14:38:27.407500",
  "BandwidthPerPixelPhaseEncode": 33.967,
  "BaseResolution": 64,
  "CoilCombinationMethod": "Sum of Squares",
  "CoilString": "C:HEA;HEP",
  "ConversionSoftware": "dcm2niix",
  "ConversionSoftwareVersion": "v1.0.20220720",
  "DerivedVendorReportedEchoSpacing": 0.000460005,
  "DeviceSerialNumber": "35193",
  "DwellTime": 3.1e-06,
  "EchoTime": 0.03,
  "EffectiveEchoSpacing": 0.000460005,
  "FlipAngle": 90,
  "HeudiconvVersion": "1.1.6",
  "ImageOrientationPatientDICOM": [1, 0, 0, 0, 1, 0],
  "ImageOrientationText": "Tra",
  "ImageType": [
    "ORIGINAL",
    "PRIMARY",
    "M",
    "ND",
    "MOSAIC"
],
  "ImagingFrequency": 123.254,
  "InPlanePhaseEncodingDirectionDICOM": "COL",
  "InstitutionAddress": "Xinjiekouwai Street No 19,Beijing,Haidian District,CN,100875",
  "InstitutionName": "BNU MRI Center",
  "InstitutionalDepartmentName": "Department",
  "MRAcquisitionType": "2D",
  "MagneticFieldStrength": 3,
  "Manufacturer": "Siemens",
  "ManufacturersModelName": "TrioTim",
  "MatrixCoilMode": "SENSE",
  "Modality": "MR",
  "NonlinearGradientCorrection": false,
  "PartialFourier": 1,
  "PatientPosition": "HFS",
  "PercentPhaseFOV": 100,
  "PercentSampling": 100,
  "PhaseEncodingDirection": "j-",
  "PhaseEncodingSteps": 64,
  "PhaseResolution": 1,
  "PixelBandwidth": 2520,
  "ProcedureStepDescription": "BNU_cst_2015^Guo.TaoMei",
  "ProtocolName": "ge_func_3x3x4_164",
  "PulseSequenceDetails": "%SiemensSeq%\\ep2d_bold",
  "ReceiveCoilName": "HeadMatrix",
  "ReconMatrixPE": 64,
  "RepetitionTime": 2,
  "SAR": 0.13826,
  "ScanOptions": "FS",
  "ScanningSequence": "EP",
  "SequenceName": "*epfid2d1_64",
  "SequenceVariant": "SK",
  "SeriesDescription": "ge_func_3x3x4_164",
  "SeriesNumber": 2,
  "ShimSetting": [-4488, -19509, -9832, 1067, -241, -668, -137, -75],
  "SliceThickness": 4,
  "SliceTiming": [0, 1.035, 0.06, 1.095, 0.1225, 1.155, 0.1825, 1.2175, 0.2425, 1.2775, 0.305, 1.3375, 0.365, 1.4, 0.425, 1.46, 0.4875, 1.52, 0.5475, 1.5825, 0.6075, 1.6425, 0.67, 1.7025, 0.73, 1.765, 0.79, 1.825, 0.8525, 1.885, 0.9125, 1.9475, 0.9725],
  "SoftwareVersions": "syngo MR B17",
  "SpacingBetweenSlices": 4.6,
  "StationName": "MRC35193",
  "TaskName": "LanguageControl",
  "TotalReadoutTime": 0.0289803,
  "TxRefAmp": 312.009,
  "dcmmeta_affine": [
    [-3.125, 0.0, 0.0, 98.65060424804688],
    [0.0, 3.125, 0.0, -94.85090637207031],
    [0.0, 0.0, 4.599999904632568, -54.03373336791992],
    [0.0, 0.0, 0.0, 1.0]
],
  "dcmmeta_reorient_transform": [
    [0.0, -1.0, 0.0, 63.0],
    [1.0, 0.0, 0.0, 0.0],
    [0.0, 0.0, 1.0, 0.0],
    [0.0, 0.0, 0.0, 1.0]
],
  "dcmmeta_shape": [64, 64, 33, 164],
  "dcmmeta_slice_dim": 2,
  "dcmmeta_version": 0.6,
  "global": {
    "const": {
      "AcquisitionMatrix": [64, 0, 0, 64],
      "AngioFlag": "N",
      "BitsAllocated": 16,
      "BitsStored": 12,
      "Columns": 384,
      "EchoNumbers": 1,
      "EchoTime": 30.0,
      "EchoTrainLength": 1,
      "FlipAngle": 90.0,
      "HighBit": 11,
      "ImageOrientationPatient": [1.0, 0.0, 0.0, 0.0, 1.0, 0.0],
      "ImagePositionPatient": [-598.65060245991, -602.02409648895, -54.03373336792],
      "ImageType": [
        "ORIGINAL",
        "PRIMARY",
        "M",
        "ND",
        "MOSAIC"
],
      "ImagedNucleus": "1H",
      "ImagingFrequency": 123.25395,
      "InPlanePhaseEncodingDirection": "COL",
      "MRAcquisitionType": "2D",
      "MagneticFieldStrength": 3.0,
      "Manufacturer": "SIEMENS",
      "ManufacturerModelName": "TrioTim",
      "Modality": "MR",
      "NumberOfAverages": 1.0,
      "NumberOfPhaseEncodingSteps": 64,
      "PercentPhaseFieldOfView": 100.0,
      "PercentSampling": 100.0,
      "PerformedProcedureStepStartTime": "143523.953000",
      "PhotometricInterpretation": "MONOCHROME2",
      "PixelBandwidth": 2520.0,
      "PixelRepresentation": 0,
      "PixelSpacing": [3.125, 3.125],
      "ProtocolName": "ge_func_3x3x4_164",
      "RepetitionTime": 2000.0,
      "Rows": 384,
      "SAR": 0.13826036920662,
      "SamplesPerPixel": 1,
      "ScanOptions": "FS",
      "ScanningSequence": "EP",
      "SequenceName": "*epfid2d1_64",
      "SequenceVariant": "SK",
      "SeriesDescription": "ge_func_3x3x4_164",
      "SeriesNumber": 2,
      "SeriesTime": "143926.687000",
      "SliceLocation": -54.03373336792,
      "SliceThickness": 4.0,
      "SmallestImagePixelValue": 0,
      "SoftwareVersions": "syngo MR B17",
      "SpacingBetweenSlices": 4.6000000238419,
      "SpecificCharacterSet": "ISO_IR 100",
      "StudyID": "1",
      "StudyTime": "143523.875000",
      "TransmitCoilName": "Body",
      "VariableFlipAngleFlag": "N",
      "WindowCenterWidthExplanation": "Algo1",
      "dBdt": 0.0},
    "slices": {}
  },
  "time": {
    "samples": {
      "AcquisitionNumber": [1, 2, 3, 4, 5, 6, 7, 8, 9, 10, 11, 12, 13, 14, 15, 16, 17, 18, 19, 20, 21, 22, 23, 24, 25, 26, 27, 28, 29, 30, 31, 32, 33, 34, 35, 36, 37, 38, 39, 40, 41, 42, 43, 44, 45, 46, 47, 48, 49, 50, 51, 52, 53, 54, 55, 56, 57, 58, 59, 60, 61, 62, 63, 64, 65, 66, 67, 68, 69, 70, 71, 72, 73, 74, 75, 76, 77, 78, 79, 80, 81, 82, 83, 84, 85, 86, 87, 88, 89, 90, 91, 92, 93, 94, 95, 96, 97, 98, 99, 100, 101, 102, 103, 104, 105, 106, 107, 108, 109, 110, 111, 112, 113, 114, 115, 116, 117, 118, 119, 120, 121, 122, 123, 124, 125, 126, 127, 128, 129, 130, 131, 132, 133, 134, 135, 136, 137, 138, 139, 140, 141, 142, 143, 144, 145, 146, 147, 148, 149, 150, 151, 152, 153, 154, 155, 156, 157, 158, 159, 160, 161, 162, 163, 164],
      "AcquisitionTime": ["143827.407500", "143829.415000", "143831.422500", "143833.432500", "143835.440000", "143837.447500", "143839.455000", "143841.462500", "143843.472500", "143845.480000", "143847.487500", "143849.495000", "143851.502500", "143853.512500", "143855.520000", "143857.527500", "143859.535000", "143901.545000", "143903.552500", "143905.560000", "143907.567500", "143909.575000", "143911.585000", "143913.592500", "143915.600000", "143917.607500", "143919.615000", "143921.625000", "143923.632500", "143925.640000", "143927.647500", "143929.657500", "143931.665000", "143933.672500", "143935.680000", "143937.687500", "143939.697500", "143941.705000", "143943.712500", "143945.720000", "143947.727500", "143949.737500", "143951.745000", "143953.752500", "143955.760000", "143957.770000", "143959.777500", "144001.785000", "144003.792500", "144005.800000", "144007.810000", "144009.817500", "144011.825000", "144013.832500", "144015.840000", "144017.850000", "144019.857500", "144021.865000", "144023.872500", "144025.880000", "144027.890000", "144029.897500", "144031.905000", "144033.912500", "144035.922500", "144037.930000", "144039.937500", "144041.945000", "144043.952500", "144045.962500", "144047.970000", "144049.977500", "144051.985000", "144053.992500", "144056.002500", "144058.010000", "144100.017500", "144102.025000", "144104.035000", "144106.042500", "144108.050000", "144110.057500", "144112.065000", "144114.075000", "144116.082500", "144118.090000", "144120.097500", "144122.105000", "144124.115000", "144126.122500", "144128.130000", "144130.137500", "144132.147500", "144134.155000", "144136.162500", "144138.170000", "144140.177500", "144142.187500", "144144.195000", "144146.202500", "144148.210000", "144150.217500", "144152.227500", "144154.235000", "144156.242500", "144158.250000", "144200.257500", "144202.267500", "144204.275000", "144206.282500", "144208.290000", "144210.300000", "144212.307500", "144214.315000", "144216.322500", "144218.330000", "144220.340000", "144222.347500", "144224.355000", "144226.362500", "144228.370000", "144230.380000", "144232.387500", "144234.395000", "144236.402500", "144238.412500", "144240.420000", "144242.427500", "144244.435000", "144246.442500", "144248.452500", "144250.460000", "144252.467500", "144254.475000", "144256.482500", "144258.492500", "144300.500000", "144302.507500", "144304.515000", "144306.525000", "144308.532500", "144310.540000", "144312.547500", "144314.555000", "144316.565000", "144318.572500", "144320.580000", "144322.587500", "144324.595000", "144326.605000", "144328.612500", "144330.620000", "144332.627500", "144334.637500", "144336.645000", "144338.652500", "144340.660000", "144342.667500", "144344.677500", "144346.685000", "144348.692500", "144350.700000", "144352.707500", "144354.717500"],
      "ContentTime": ["143926.687000", "143926.687000", "143926.687000", "143926.687000", "143926.703000", "143926.703000", "143926.703000", "143926.703000", "143926.703000", "143926.703000", "143926.703000", "143926.703000", "143926.703000", "143926.718000", "143926.718000", "143926.718000", "143926.718000", "143926.718000", "143926.718000", "143926.734000", "143926.734000", "143926.734000", "143926.734000", "143926.750000", "143926.750000", "143926.750000", "143926.750000", "143926.750000", "143926.750000", "144006.687000", "144006.687000", "144006.687000", "144006.687000", "144006.687000", "144006.687000", "144006.687000", "144006.687000", "144006.703000", "144006.703000", "144006.703000", "144006.703000", "144006.703000", "144006.718000", "144006.718000", "144006.718000", "144006.718000", "144006.718000", "144006.718000", "144006.718000", "144046.687000", "144046.687000", "144046.687000", "144046.703000", "144046.703000", "144046.703000", "144046.703000", "144046.703000", "144046.718000", "144046.718000", "144046.718000", "144046.718000", "144046.718000", "144046.734000", "144046.734000", "144046.734000", "144046.734000", "144046.734000", "144046.734000", "144046.734000", "144126.671000", "144126.687000", "144126.687000", "144126.703000", "144126.703000", "144126.703000", "144126.703000", "144126.703000", "144126.718000", "144126.718000", "144126.718000", "144126.718000", "144126.718000", "144126.734000", "144126.734000", "144126.734000", "144126.734000", "144126.750000", "144126.750000", "144126.750000", "144206.687000", "144206.687000", "144206.687000", "144206.687000", "144206.703000", "144206.703000", "144206.703000", "144206.703000", "144206.703000", "144206.718000", "144206.718000", "144206.718000", "144206.718000", "144206.718000", "144206.718000", "144206.718000", "144206.718000", "144206.734000", "144206.734000", "144206.734000", "144246.687000", "144246.687000", "144246.687000", "144246.687000", "144246.687000", "144246.687000", "144246.703000", "144246.703000", "144246.703000", "144246.703000", "144246.703000", "144246.703000", "144246.703000", "144246.718000", "144246.718000", "144246.718000", "144246.718000", "144246.718000", "144246.718000", "144246.718000", "144326.687000", "144326.687000", "144326.687000", "144326.687000", "144326.687000", "144326.687000", "144326.687000", "144326.703000", "144326.703000", "144326.703000", "144326.703000", "144326.703000", "144326.703000", "144326.718000", "144326.718000", "144326.718000", "144326.718000", "144326.718000", "144326.718000", "144326.718000", "144356.156000", "144356.156000", "144356.156000", "144356.156000", "144356.171000", "144356.171000", "144356.171000", "144356.171000", "144356.171000", "144356.171000", "144356.187000", "144356.187000", "144356.187000", "144356.187000", "144356.187000"],
      "InstanceCreationTime": ["143926.687000", "143926.687000", "143926.687000", "143926.687000", "143926.703000", "143926.703000", "143926.703000", "143926.703000", "143926.703000", "143926.703000", "143926.703000", "143926.703000", "143926.703000", "143926.718000", "143926.718000", "143926.718000", "143926.718000", "143926.718000", "143926.718000", "143926.734000", "143926.734000", "143926.734000", "143926.734000", "143926.750000", "143926.750000", "143926.750000", "143926.750000", "143926.750000", "143926.750000", "144006.687000", "144006.687000", "144006.687000", "144006.687000", "144006.687000", "144006.687000", "144006.687000", "144006.687000", "144006.703000", "144006.703000", "144006.703000", "144006.703000", "144006.703000", "144006.718000", "144006.718000", "144006.718000", "144006.718000", "144006.718000", "144006.718000", "144006.718000", "144046.687000", "144046.687000", "144046.687000", "144046.703000", "144046.703000", "144046.703000", "144046.703000", "144046.703000", "144046.718000", "144046.718000", "144046.718000", "144046.718000", "144046.718000", "144046.734000", "144046.734000", "144046.734000", "144046.734000", "144046.734000", "144046.734000", "144046.734000", "144126.671000", "144126.687000", "144126.687000", "144126.703000", "144126.703000", "144126.703000", "144126.703000", "144126.703000", "144126.718000", "144126.718000", "144126.718000", "144126.718000", "144126.718000", "144126.734000", "144126.734000", "144126.734000", "144126.734000", "144126.750000", "144126.750000", "144126.750000", "144206.687000", "144206.687000", "144206.687000", "144206.687000", "144206.703000", "144206.703000", "144206.703000", "144206.703000", "144206.703000", "144206.718000", "144206.718000", "144206.718000", "144206.718000", "144206.718000", "144206.718000", "144206.718000", "144206.718000", "144206.734000", "144206.734000", "144206.734000", "144246.687000", "144246.687000", "144246.687000", "144246.687000", "144246.687000", "144246.687000", "144246.703000", "144246.703000", "144246.703000", "144246.703000", "144246.703000", "144246.703000", "144246.703000", "144246.718000", "144246.718000", "144246.718000", "144246.718000", "144246.718000", "144246.718000", "144246.718000", "144326.687000", "144326.687000", "144326.687000", "144326.687000", "144326.687000", "144326.687000", "144326.687000", "144326.703000", "144326.703000", "144326.703000", "144326.703000", "144326.703000", "144326.703000", "144326.718000", "144326.718000", "144326.718000", "144326.718000", "144326.718000", "144326.718000", "144326.718000", "144356.156000", "144356.156000", "144356.156000", "144356.156000", "144356.171000", "144356.171000", "144356.171000", "144356.171000", "144356.171000", "144356.171000", "144356.187000", "144356.187000", "144356.187000", "144356.187000", "144356.187000"],
      "InstanceNumber": [1, 2, 3, 4, 5, 6, 7, 8, 9, 10, 11, 12, 13, 14, 15, 16, 17, 18, 19, 20, 21, 22, 23, 24, 25, 26, 27, 28, 29, 30, 31, 32, 33, 34, 35, 36, 37, 38, 39, 40, 41, 42, 43, 44, 45, 46, 47, 48, 49, 50, 51, 52, 53, 54, 55, 56, 57, 58, 59, 60, 61, 62, 63, 64, 65, 66, 67, 68, 69, 70, 71, 72, 73, 74, 75, 76, 77, 78, 79, 80, 81, 82, 83, 84, 85, 86, 87, 88, 89, 90, 91, 92, 93, 94, 95, 96, 97, 98, 99, 100, 101, 102, 103, 104, 105, 106, 107, 108, 109, 110, 111, 112, 113, 114, 115, 116, 117, 118, 119, 120, 121, 122, 123, 124, 125, 126, 127, 128, 129, 130, 131, 132, 133, 134, 135, 136, 137, 138, 139, 140, 141, 142, 143, 144, 145, 146, 147, 148, 149, 150, 151, 152, 153, 154, 155, 156, 157, 158, 159, 160, 161, 162, 163, 164],
      "LargestImagePixelValue": [2110, 2029, 2017, 1980, 2002, 2011, 1985, 2011, 1980, 1972, 1970, 2035, 1966, 1984, 2048, 1957, 2019, 1985, 1994, 1980, 1992, 2001, 2044, 1959, 1959, 1970, 1951, 1958, 2058, 1973, 2019, 2000, 2013, 2001, 1989, 2027, 1995, 1959, 2025, 1958, 1999, 1973, 2017, 1996, 1975, 1953, 1974, 2020, 1996, 2000, 1954, 1980, 2007, 1960, 1963, 1987, 2012, 1967, 2023, 2009, 1984, 2032, 2005, 1994, 1992, 1943, 1971, 1997, 2052, 1982, 2014, 1983, 1994, 1996, 2018, 2022, 1970, 1985, 2073, 2014, 1971, 1969, 2090, 1955, 1993, 1943, 2044, 2108, 1992, 2014, 1986, 2022, 1994, 1999, 2101, 1984, 2007, 2017, 2007, 2017, 2012, 2014, 1986, 2104, 2030, 2014, 1972, 1989, 1953, 2005, 1981, 2014, 1959, 2004, 1949, 1998, 2012, 1949, 2016, 1983, 2035, 1986, 2065, 1984, 2010, 2011, 2014, 2009, 1976, 1940, 1968, 2036, 1928, 1961, 1957, 1966, 1978, 1961, 2004, 2030, 1968, 1935, 1963, 1972, 1992, 1955, 1959, 2022, 1997, 1956, 2010, 2042, 2061, 1954, 1968, 2029, 1987, 2048, 2004, 1957, 1957, 1982, 1972, 2047],
      "WindowCenter": [746.0, 743.0, 743.0, 742.0, 742.0, 741.0, 740.0, 740.0, 740.0, 741.0, 740.0, 741.0, 741.0, 741.0, 741.0, 740.0, 739.0, 740.0, 740.0, 741.0, 740.0, 741.0, 741.0, 741.0, 741.0, 740.0, 741.0, 740.0, 741.0, 741.0, 741.0, 741.0, 741.0, 741.0, 740.0, 741.0, 740.0, 740.0, 740.0, 739.0, 739.0, 739.0, 740.0, 740.0, 741.0, 740.0, 740.0, 741.0, 741.0, 742.0, 743.0, 744.0, 743.0, 743.0, 743.0, 743.0, 743.0, 742.0, 742.0, 740.0, 739.0, 739.0, 738.0, 738.0, 739.0, 739.0, 740.0, 742.0, 742.0, 743.0, 743.0, 741.0, 739.0, 738.0, 737.0, 738.0, 738.0, 740.0, 740.0, 739.0, 740.0, 740.0, 741.0, 740.0, 742.0, 741.0, 742.0, 744.0, 742.0, 744.0, 742.0, 741.0, 740.0, 739.0, 742.0, 741.0, 743.0, 743.0, 743.0, 741.0, 739.0, 738.0, 738.0, 740.0, 740.0, 740.0, 741.0, 741.0, 741.0, 741.0, 741.0, 742.0, 743.0, 743.0, 743.0, 743.0, 744.0, 742.0, 742.0, 742.0, 743.0, 741.0, 741.0, 742.0, 741.0, 741.0, 741.0, 740.0, 740.0, 739.0, 739.0, 739.0, 738.0, 740.0, 741.0, 741.0, 742.0, 741.0, 743.0, 743.0, 743.0, 743.0, 743.0, 743.0, 741.0, 740.0, 739.0, 739.0, 740.0, 741.0, 741.0, 742.0, 743.0, 741.0, 741.0, 740.0, 740.0, 739.0, 740.0, 739.0, 739.0, 738.0, 740.0, 739.0],
      "WindowWidth": [1643.0, 1631.0, 1632.0, 1628.0, 1629.0, 1625.0, 1623.0, 1625.0, 1623.0, 1625.0, 1623.0, 1627.0, 1625.0, 1626.0, 1627.0, 1622.0, 1622.0, 1622.0, 1623.0, 1625.0, 1625.0, 1628.0, 1627.0, 1627.0, 1626.0, 1624.0, 1624.0, 1624.0, 1627.0, 1625.0, 1626.0, 1626.0, 1626.0, 1626.0, 1624.0, 1626.0, 1624.0, 1624.0, 1624.0, 1621.0, 1622.0, 1619.0, 1625.0, 1625.0, 1625.0, 1624.0, 1624.0, 1626.0, 1627.0, 1630.0, 1631.0, 1636.0, 1633.0, 1632.0, 1633.0, 1632.0, 1634.0, 1630.0, 1628.0, 1623.0, 1621.0, 1620.0, 1617.0, 1618.0, 1621.0, 1620.0, 1625.0, 1630.0, 1631.0, 1634.0, 1633.0, 1627.0, 1621.0, 1617.0, 1617.0, 1619.0, 1618.0, 1623.0, 1624.0, 1621.0, 1623.0, 1623.0, 1626.0, 1622.0, 1628.0, 1627.0, 1632.0, 1636.0, 1630.0, 1635.0, 1630.0, 1626.0, 1622.0, 1621.0, 1630.0, 1627.0, 1632.0, 1633.0, 1632.0, 1626.0, 1620.0, 1619.0, 1619.0, 1626.0, 1625.0, 1626.0, 1625.0, 1628.0, 1627.0, 1627.0, 1627.0, 1630.0, 1631.0, 1635.0, 1634.0, 1634.0, 1635.0, 1628.0, 1630.0, 1629.0, 1631.0, 1626.0, 1629.0, 1629.0, 1628.0, 1628.0, 1626.0, 1623.0, 1623.0, 1620.0, 1619.0, 1622.0, 1619.0, 1623.0, 1626.0, 1627.0, 1631.0, 1627.0, 1632.0, 1633.0, 1633.0, 1632.0, 1632.0, 1632.0, 1627.0, 1622.0, 1620.0, 1623.0, 1625.0, 1627.0, 1628.0, 1631.0, 1632.0, 1627.0, 1625.0, 1624.0, 1622.0, 1621.0, 1623.0, 1621.0, 1621.0, 1618.0, 1622.0, 1621.0]
    },
    "slices": {}
  }
}