{
  "AcquisitionMatrixPE": 64,
  "AcquisitionNumber": 1,
  "AcquisitionTime": "09:18:28.725000",
  "BandwidthPerPixelPhaseEncode": 33.967,
  "BaseResolution": 64,
  "CoilCombinationMethod": "Sum of Squares",
  "CoilString": "C:HEA;HEP",
  "ConversionSoftware": "dcm2niix",
  "ConversionSoftwareVersion": "v1.0.20220720",
  "DerivedVendorReportedEchoSpacing": 0.000460005,
  "DeviceSerialNumber": "35193",
  "DwellTime": 3.1e-06,
  "EchoTime": 0.03,
  "EffectiveEchoSpacing": 0.000460005,
  "FlipAngle": 90,
  "HeudiconvVersion": "1.1.6",
  "ImageOrientationPatientDICOM": [0.998342, -1e-16, 0.057564, 1e-16, 1, 0],
  "ImageOrientationText": "Tra>Sag(3.3)",
  "ImageType": [
    "ORIGINAL",
    "PRIMARY",
    "M",
    "ND",
    "MOSAIC"
],
  "ImagingFrequency": 123.254,
  "InPlanePhaseEncodingDirectionDICOM": "COL",
  "InstitutionAddress": "Xinjiekouwai Street No 19,Beijing,Haidian District,CN,100875",
  "InstitutionName": "BNU MRI Center",
  "InstitutionalDepartmentName": "Department",
  "MRAcquisitionType": "2D",
  "MagneticFieldStrength": 3,
  "Manufacturer": "Siemens",
  "ManufacturersModelName": "TrioTim",
  "MatrixCoilMode": "SENSE",
  "Modality": "MR",
  "NonlinearGradientCorrection": false,
  "PartialFourier": 1,
  "PatientPosition": "HFS",
  "PercentPhaseFOV": 100,
  "PercentSampling": 100,
  "PhaseEncodingDirection": "j-",
  "PhaseEncodingSteps": 64,
  "PhaseResolution": 1,
  "PixelBandwidth": 2520,
  "ProcedureStepDescription": "BNU_cst_2015^Guo.TaoMei",
  "ProtocolName": "ge_func_3x3x4_164",
  "PulseSequenceDetails": "%SiemensSeq%\\ep2d_bold",
  "ReceiveCoilName": "HeadMatrix",
  "ReconMatrixPE": 64,
  "RepetitionTime": 2,
  "SAR": 0.162696,
  "ScanOptions": "FS",
  "ScanningSequence": "EP",
  "SequenceName": "*epfid2d1_64",
  "SequenceVariant": "SK",
  "SeriesDescription": "ge_func_3x3x4_164",
  "SeriesNumber": 3,
  "ShimSetting": [-4454, -19493, -9784, 1400, -57, -480, 66, -169],
  "SliceThickness": 4,
  "SliceTiming": [0, 1.035, 0.06, 1.095, 0.1225, 1.155, 0.1825, 1.2175, 0.2425, 1.2775, 0.305, 1.3375, 0.365, 1.4, 0.425, 1.46, 0.4875, 1.52, 0.5475, 1.5825, 0.6075, 1.6425, 0.67, 1.7025, 0.73, 1.765, 0.79, 1.825, 0.8525, 1.885, 0.9125, 1.9475, 0.9725],
  "SoftwareVersions": "syngo MR B17",
  "SpacingBetweenSlices": 4.6,
  "StationName": "MRC35193",
  "TaskName": "LanguageControl",
  "TotalReadoutTime": 0.0289803,
  "TxRefAmp": 334.684,
  "dcmmeta_affine": [
    [-3.1198182106018066, 3.124999945161469e-16, 0.2647945284843445, 108.416748046875],
    [3.124999945161469e-16, 3.125, -2.647945265178008e-17, -80.00753021240234],
    [0.179887592792511, 0.0, 4.592372417449951, -48.19821548461914],
    [0.0, 0.0, 0.0, 1.0]
],
  "dcmmeta_reorient_transform": [
    [0.0, -1.0, 0.0, 63.0],
    [1.0, 0.0, 0.0, 0.0],
    [0.0, 0.0, 1.0, 0.0],
    [0.0, 0.0, 0.0, 1.0]
],
  "dcmmeta_shape": [64, 64, 33, 164],
  "dcmmeta_slice_dim": 2,
  "dcmmeta_version": 0.6,
  "global": {
    "const": {
      "AcquisitionMatrix": [64, 0, 0, 64],
      "AngioFlag": "N",
      "BitsAllocated": 16,
      "BitsStored": 12,
      "Columns": 384,
      "EchoNumbers": 1,
      "EchoTime": 30.0,
      "EchoTrainLength": 1,
      "FlipAngle": 90.0,
      "HighBit": 11,
      "ImageOrientationPatient": [0.99834181651793, -1e-16, 0.0575640286263, 1e-16, 1.0, 0.0],
      "ImagePositionPatient": [-607.5876542647, -616.8674697876, -76.980231598387],
      "ImageType": [
        "ORIGINAL",
        "PRIMARY",
        "M",
        "ND",
        "MOSAIC"
],
      "ImagedNucleus": "1H",
      "ImagingFrequency": 123.253558,
      "InPlanePhaseEncodingDirection": "COL",
      "MRAcquisitionType": "2D",
      "MagneticFieldStrength": 3.0,
      "Manufacturer": "SIEMENS",
      "ManufacturerModelName": "TrioTim",
      "Modality": "MR",
      "NumberOfAverages": 1.0,
      "NumberOfPhaseEncodingSteps": 64,
      "PercentPhaseFieldOfView": 100.0,
      "PercentSampling": 100.0,
      "PerformedProcedureStepStartTime": "085740.562000",
      "PhotometricInterpretation": "MONOCHROME2",
      "PixelBandwidth": 2520.0,
      "PixelRepresentation": 0,
      "PixelSpacing": [3.125, 3.125],
      "ProtocolName": "ge_func_3x3x4_164",
      "RepetitionTime": 2000.0,
      "Rows": 384,
      "SAR": 0.16269645750553,
      "SamplesPerPixel": 1,
      "ScanOptions": "FS",
      "ScanningSequence": "EP",
      "SequenceName": "*epfid2d1_64",
      "SequenceVariant": "SK",
      "SeriesDescription": "ge_func_3x3x4_164",
      "SeriesNumber": 3,
      "SeriesTime": "091834.109000",
      "SliceLocation": -41.877391126825,
      "SliceThickness": 4.0,
      "SmallestImagePixelValue": 0,
      "SoftwareVersions": "syngo MR B17",
      "SpacingBetweenSlices": 4.5999999438855,
      "SpecificCharacterSet": "ISO_IR 100",
      "StudyID": "1",
      "StudyTime": "085739.484000",
      "TransmitCoilName": "Body",
      "VariableFlipAngleFlag": "N",
      "WindowCenterWidthExplanation": "Algo1",
      "dBdt": 0.0},
    "slices": {}
  },
  "time": {
    "samples": {
      "AcquisitionNumber": [1, 2, 3, 4, 5, 6, 7, 8, 9, 10, 11, 12, 13, 14, 15, 16, 17, 18, 19, 20, 21, 22, 23, 24, 25, 26, 27, 28, 29, 30, 31, 32, 33, 34, 35, 36, 37, 38, 39, 40, 41, 42, 43, 44, 45, 46, 47, 48, 49, 50, 51, 52, 53, 54, 55, 56, 57, 58, 59, 60, 61, 62, 63, 64, 65, 66, 67, 68, 69, 70, 71, 72, 73, 74, 75, 76, 77, 78, 79, 80, 81, 82, 83, 84, 85, 86, 87, 88, 89, 90, 91, 92, 93, 94, 95, 96, 97, 98, 99, 100, 101, 102, 103, 104, 105, 106, 107, 108, 109, 110, 111, 112, 113, 114, 115, 116, 117, 118, 119, 120, 121, 122, 123, 124, 125, 126, 127, 128, 129, 130, 131, 132, 133, 134, 135, 136, 137, 138, 139, 140, 141, 142, 143, 144, 145, 146, 147, 148, 149, 150, 151, 152, 153, 154, 155, 156, 157, 158, 159, 160, 161, 162, 163, 164],
      "AcquisitionTime": ["091828.725000", "091830.732500", "091832.742500", "091834.750000", "091836.757500", "091838.765000", "091840.772500", "091842.782500", "091844.790000", "091846.797500", "091848.805000", "091850.812500", "091852.822500", "091854.830000", "091856.837500", "091858.845000", "091900.855000", "091902.862500", "091904.870000", "091906.877500", "091908.885000", "091910.895000", "091912.902500", "091914.910000", "091916.917500", "091918.925000", "091920.935000", "091922.942500", "091924.950000", "091926.957500", "091928.965000", "091930.975000", "091932.982500", "091934.990000", "091936.997500", "091939.007500", "091941.015000", "091943.022500", "091945.030000", "091947.037500", "091949.047500", "091951.055000", "091953.062500", "091955.070000", "091957.077500", "091959.087500", "092001.095000", "092003.102500", "092005.110000", "092007.120000", "092009.127500", "092011.135000", "092013.142500", "092015.150000", "092017.160000", "092019.167500", "092021.175000", "092023.182500", "092025.190000", "092027.200000", "092029.207500", "092031.215000", "092033.222500", "092035.232500", "092037.240000", "092039.247500", "092041.255000", "092043.262500", "092045.272500", "092047.280000", "092049.287500", "092051.295000", "092053.302500", "092055.312500", "092057.320000", "092059.327500", "092101.335000", "092103.342500", "092105.352500", "092107.360000", "092109.367500", "092111.375000", "092113.385000", "092115.392500", "092117.400000", "092119.407500", "092121.415000", "092123.425000", "092125.432500", "092127.440000", "092129.447500", "092131.455000", "092133.465000", "092135.472500", "092137.480000", "092139.487500", "092141.497500", "092143.505000", "092145.512500", "092147.520000", "092149.527500", "092151.537500", "092153.545000", "092155.552500", "092157.560000", "092159.567500", "092201.577500", "092203.585000", "092205.592500", "092207.600000", "092209.610000", "092211.617500", "092213.625000", "092215.632500", "092217.640000", "092219.650000", "092221.657500", "092223.665000", "092225.672500", "092227.680000", "092229.690000", "092231.697500", "092233.705000", "092235.712500", "092237.720000", "092239.730000", "092241.737500", "092243.745000", "092245.752500", "092247.762500", "092249.770000", "092251.777500", "092253.785000", "092255.792500", "092257.802500", "092259.810000", "092301.817500", "092303.825000", "092305.832500", "092307.842500", "092309.850000", "092311.857500", "092313.865000", "092315.875000", "092317.882500", "092319.890000", "092321.897500", "092323.905000", "092325.915000", "092327.922500", "092329.930000", "092331.937500", "092333.945000", "092335.955000", "092337.962500", "092339.970000", "092341.977500", "092343.987500", "092345.995000", "092348.002500", "092350.010000", "092352.017500", "092354.027500", "092356.035000"],
      "ContentTime": ["091834.109000", "091834.109000", "091914.093000", "091914.109000", "091914.109000", "091914.109000", "091914.109000", "091914.109000", "091914.109000", "091914.109000", "091914.109000", "091914.125000", "091914.125000", "091914.125000", "091914.125000", "091914.125000", "091914.125000", "091914.140000", "091914.140000", "091914.140000", "091914.140000", "091914.140000", "091954.093000", "091954.109000", "091954.109000", "091954.109000", "091954.109000", "091954.109000", "091954.109000", "091954.125000", "091954.125000", "091954.125000", "091954.140000", "091954.140000", "091954.140000", "091954.140000", "091954.140000", "091954.140000", "091954.140000", "091954.140000", "091954.156000", "091954.156000", "092034.093000", "092034.109000", "092034.109000", "092034.109000", "092034.109000", "092034.109000", "092034.109000", "092034.109000", "092034.109000", "092034.125000", "092034.125000", "092034.125000", "092034.125000", "092034.125000", "092034.140000", "092034.156000", "092034.156000", "092034.156000", "092034.156000", "092034.156000", "092114.093000", "092114.109000", "092114.109000", "092114.109000", "092114.125000", "092114.125000", "092114.125000", "092114.125000", "092114.125000", "092114.125000", "092114.125000", "092114.125000", "092114.140000", "092114.140000", "092114.140000", "092114.140000", "092114.140000", "092114.140000", "092114.140000", "092114.140000", "092154.093000", "092154.109000", "092154.109000", "092154.109000", "092154.109000", "092154.109000", "092154.109000", "092154.109000", "092154.109000", "092154.125000", "092154.125000", "092154.125000", "092154.125000", "092154.125000", "092154.140000", "092154.140000", "092154.140000", "092154.140000", "092154.140000", "092154.140000", "092234.093000", "092234.109000", "092234.109000", "092234.109000", "092234.109000", "092234.109000", "092234.109000", "092234.109000", "092234.109000", "092234.125000", "092234.125000", "092234.125000", "092234.125000", "092234.125000", "092234.125000", "092234.125000", "092234.125000", "092234.125000", "092234.140000", "092234.140000", "092314.093000", "092314.109000", "092314.109000", "092314.109000", "092314.109000", "092314.109000", "092314.125000", "092314.125000", "092314.125000", "092314.125000", "092314.125000", "092314.125000", "092314.125000", "092314.125000", "092314.140000", "092314.140000", "092314.140000", "092314.140000", "092314.140000", "092314.140000", "092354.093000", "092354.109000", "092354.109000", "092354.109000", "092354.125000", "092354.125000", "092354.125000", "092354.125000", "092354.125000", "092354.125000", "092354.125000", "092354.125000", "092354.125000", "092354.140000", "092354.140000", "092354.140000", "092354.140000", "092354.140000", "092354.140000", "092354.140000", "092357.140000", "092357.140000"],
      "InstanceCreationTime": ["091834.109000", "091834.109000", "091914.093000", "091914.109000", "091914.109000", "091914.109000", "091914.109000", "091914.109000", "091914.109000", "091914.109000", "091914.109000", "091914.125000", "091914.125000", "091914.125000", "091914.125000", "091914.125000", "091914.125000", "091914.140000", "091914.140000", "091914.140000", "091914.140000", "091914.140000", "091954.093000", "091954.109000", "091954.109000", "091954.109000", "091954.109000", "091954.109000", "091954.109000", "091954.125000", "091954.125000", "091954.125000", "091954.140000", "091954.140000", "091954.140000", "091954.140000", "091954.140000", "091954.140000", "091954.140000", "091954.140000", "091954.156000", "091954.156000", "092034.093000", "092034.109000", "092034.109000", "092034.109000", "092034.109000", "092034.109000", "092034.109000", "092034.109000", "092034.109000", "092034.125000", "092034.125000", "092034.125000", "092034.125000", "092034.125000", "092034.140000", "092034.156000", "092034.156000", "092034.156000", "092034.156000", "092034.156000", "092114.093000", "092114.109000", "092114.109000", "092114.109000", "092114.125000", "092114.125000", "092114.125000", "092114.125000", "092114.125000", "092114.125000", "092114.125000", "092114.125000", "092114.140000", "092114.140000", "092114.140000", "092114.140000", "092114.140000", "092114.140000", "092114.140000", "092114.140000", "092154.093000", "092154.109000", "092154.109000", "092154.109000", "092154.109000", "092154.109000", "092154.109000", "092154.109000", "092154.109000", "092154.125000", "092154.125000", "092154.125000", "092154.125000", "092154.125000", "092154.140000", "092154.140000", "092154.140000", "092154.140000", "092154.140000", "092154.140000", "092234.093000", "092234.109000", "092234.109000", "092234.109000", "092234.109000", "092234.109000", "092234.109000", "092234.109000", "092234.109000", "092234.125000", "092234.125000", "092234.125000", "092234.125000", "092234.125000", "092234.125000", "092234.125000", "092234.125000", "092234.125000", "092234.140000", "092234.140000", "092314.093000", "092314.109000", "092314.109000", "092314.109000", "092314.109000", "092314.109000", "092314.125000", "092314.125000", "092314.125000", "092314.125000", "092314.125000", "092314.125000", "092314.125000", "092314.125000", "092314.140000", "092314.140000", "092314.140000", "092314.140000", "092314.140000", "092314.140000", "092354.093000", "092354.109000", "092354.109000", "092354.109000", "092354.125000", "092354.125000", "092354.125000", "092354.125000", "092354.125000", "092354.125000", "092354.125000", "092354.125000", "092354.125000", "092354.140000", "092354.140000", "092354.140000", "092354.140000", "092354.140000", "092354.140000", "092354.140000", "092357.140000", "092357.140000"],
      "InstanceNumber": [1, 2, 3, 4, 5, 6, 7, 8, 9, 10, 11, 12, 13, 14, 15, 16, 17, 18, 19, 20, 21, 22, 23, 24, 25, 26, 27, 28, 29, 30, 31, 32, 33, 34, 35, 36, 37, 38, 39, 40, 41, 42, 43, 44, 45, 46, 47, 48, 49, 50, 51, 52, 53, 54, 55, 56, 57, 58, 59, 60, 61, 62, 63, 64, 65, 66, 67, 68, 69, 70, 71, 72, 73, 74, 75, 76, 77, 78, 79, 80, 81, 82, 83, 84, 85, 86, 87, 88, 89, 90, 91, 92, 93, 94, 95, 96, 97, 98, 99, 100, 101, 102, 103, 104, 105, 106, 107, 108, 109, 110, 111, 112, 113, 114, 115, 116, 117, 118, 119, 120, 121, 122, 123, 124, 125, 126, 127, 128, 129, 130, 131, 132, 133, 134, 135, 136, 137, 138, 139, 140, 141, 142, 143, 144, 145, 146, 147, 148, 149, 150, 151, 152, 153, 154, 155, 156, 157, 158, 159, 160, 161, 162, 163, 164],
      "LargestImagePixelValue": [1657, 1622, 1694, 1715, 1619, 1641, 1838, 1772, 1662, 1674, 1668, 1691, 1678, 1683, 1667, 1693, 1696, 1677, 1682, 1685, 1684, 1699, 1691, 1775, 1673, 1677, 1762, 1690, 1677, 1686, 1684, 1691, 1680, 1700, 1691, 1769, 1704, 1685, 1704, 1692, 1714, 1716, 1711, 1697, 1713, 1723, 1900, 1713, 1730, 1934, 1709, 1714, 1865, 1709, 1737, 1729, 1715, 1720, 1961, 1706, 1700, 1826, 1722, 1891, 1724, 1728, 1994, 1679, 1697, 1699, 1728, 1710, 1717, 1689, 1699, 1760, 1711, 1720, 1707, 1693, 1683, 1710, 1728, 1721, 1710, 2043, 1727, 1704, 1720, 1708, 1702, 1723, 1724, 1722, 1714, 1794, 1727, 1712, 1716, 1742, 1723, 1712, 1714, 1735, 1734, 1725, 1737, 1732, 1734, 1712, 1740, 1753, 1848, 1709, 1722, 1721, 1745, 1734, 1730, 1725, 1749, 1774, 1748, 1755, 1756, 1736, 1737, 1745, 1762, 1752, 1761, 1757, 1739, 1755, 1759, 1789, 1879, 1748, 1751, 1773, 1766, 1759, 1745, 1751, 1736, 1743, 1784, 1750, 1765, 1766, 1755, 1749, 1753, 1747, 1747, 1932, 1752, 1789, 1756, 1778, 1785, 1746, 1727, 1732],
      "WindowCenter": [733.0, 732.0, 732.0, 732.0, 731.0, 730.0, 730.0, 729.0, 729.0, 729.0, 729.0, 730.0, 730.0, 731.0, 731.0, 730.0, 731.0, 731.0, 730.0, 730.0, 731.0, 731.0, 731.0, 732.0, 731.0, 731.0, 731.0, 730.0, 730.0, 731.0, 732.0, 732.0, 732.0, 732.0, 731.0, 732.0, 730.0, 730.0, 731.0, 732.0, 733.0, 733.0, 733.0, 733.0, 733.0, 732.0, 733.0, 732.0, 732.0, 733.0, 733.0, 733.0, 733.0, 732.0, 732.0, 732.0, 732.0, 732.0, 734.0, 732.0, 732.0, 732.0, 730.0, 732.0, 734.0, 734.0, 735.0, 733.0, 732.0, 732.0, 734.0, 734.0, 734.0, 734.0, 733.0, 733.0, 733.0, 733.0, 732.0, 732.0, 731.0, 731.0, 732.0, 732.0, 732.0, 734.0, 732.0, 733.0, 733.0, 732.0, 732.0, 732.0, 732.0, 733.0, 732.0, 732.0, 732.0, 732.0, 732.0, 732.0, 732.0, 732.0, 732.0, 732.0, 732.0, 732.0, 732.0, 732.0, 732.0, 732.0, 733.0, 734.0, 735.0, 734.0, 733.0, 733.0, 734.0, 734.0, 733.0, 733.0, 732.0, 733.0, 733.0, 734.0, 734.0, 734.0, 733.0, 732.0, 733.0, 734.0, 734.0, 733.0, 731.0, 731.0, 732.0, 733.0, 734.0, 733.0, 733.0, 734.0, 735.0, 734.0, 733.0, 733.0, 732.0, 732.0, 732.0, 733.0, 733.0, 733.0, 733.0, 733.0, 734.0, 733.0, 733.0, 733.0, 733.0, 734.0, 733.0, 734.0, 734.0, 734.0, 734.0, 734.0],
      "WindowWidth": [1595.0, 1590.0, 1591.0, 1590.0, 1587.0, 1585.0, 1586.0, 1583.0, 1582.0, 1582.0, 1584.0, 1585.0, 1587.0, 1587.0, 1587.0, 1587.0, 1588.0, 1587.0, 1586.0, 1585.0, 1587.0, 1588.0, 1589.0, 1590.0, 1588.0, 1588.0, 1588.0, 1586.0, 1587.0, 1590.0, 1590.0, 1590.0, 1590.0, 1590.0, 1589.0, 1590.0, 1586.0, 1586.0, 1589.0, 1592.0, 1594.0, 1592.0, 1594.0, 1593.0, 1593.0, 1592.0, 1594.0, 1591.0, 1591.0, 1595.0, 1595.0, 1594.0, 1593.0, 1591.0, 1591.0, 1590.0, 1591.0, 1592.0, 1596.0, 1592.0, 1591.0, 1591.0, 1587.0, 1592.0, 1596.0, 1595.0, 1598.0, 1592.0, 1591.0, 1591.0, 1596.0, 1596.0, 1596.0, 1596.0, 1594.0, 1594.0, 1594.0, 1593.0, 1591.0, 1591.0, 1589.0, 1588.0, 1590.0, 1592.0, 1592.0, 1598.0, 1592.0, 1593.0, 1594.0, 1591.0, 1591.0, 1591.0, 1591.0, 1593.0, 1591.0, 1592.0, 1590.0, 1591.0, 1591.0, 1592.0, 1592.0, 1592.0, 1591.0, 1590.0, 1591.0, 1591.0, 1591.0, 1592.0, 1590.0, 1591.0, 1595.0, 1597.0, 1600.0, 1597.0, 1595.0, 1593.0, 1596.0, 1598.0, 1595.0, 1593.0, 1592.0, 1593.0, 1593.0, 1595.0, 1598.0, 1597.0, 1594.0, 1592.0, 1593.0, 1595.0, 1596.0, 1593.0, 1589.0, 1588.0, 1591.0, 1594.0, 1597.0, 1594.0, 1595.0, 1597.0, 1598.0, 1597.0, 1594.0, 1594.0, 1592.0, 1591.0, 1592.0, 1593.0, 1594.0, 1594.0, 1594.0, 1594.0, 1596.0, 1594.0, 1593.0, 1595.0, 1593.0, 1595.0, 1594.0, 1596.0, 1597.0, 1598.0, 1596.0, 1596.0]
    },
    "slices": {}
  }
}