{
  "AcquisitionMatrixPE": 64,
  "AcquisitionNumber": 1,
  "AcquisitionTime": "09:25:57.405000",
  "BandwidthPerPixelPhaseEncode": 33.967,
  "BaseResolution": 64,
  "CoilCombinationMethod": "Sum of Squares",
  "CoilString": "C:HEA;HEP",
  "ConversionSoftware": "dcm2niix",
  "ConversionSoftwareVersion": "v1.0.20220720",
  "DerivedVendorReportedEchoSpacing": 0.000460005,
  "DeviceSerialNumber": "35193",
  "DwellTime": 3.1e-06,
  "EchoTime": 0.03,
  "EffectiveEchoSpacing": 0.000460005,
  "FlipAngle": 90,
  "HeudiconvVersion": "1.1.6",
  "ImageOrientationPatientDICOM": [0.998342, -1e-16, 0.057564, 1e-16, 1, 0],
  "ImageOrientationText": "Tra>Sag(3.3)",
  "ImageType": [
    "ORIGINAL",
    "PRIMARY",
    "M",
    "ND",
    "MOSAIC"
],
  "ImagingFrequency": 123.254,
  "InPlanePhaseEncodingDirectionDICOM": "COL",
  "InstitutionAddress": "Xinjiekouwai Street No 19,Beijing,Haidian District,CN,100875",
  "InstitutionName": "BNU MRI Center",
  "InstitutionalDepartmentName": "Department",
  "MRAcquisitionType": "2D",
  "MagneticFieldStrength": 3,
  "Manufacturer": "Siemens",
  "ManufacturersModelName": "TrioTim",
  "MatrixCoilMode": "SENSE",
  "Modality": "MR",
  "NonlinearGradientCorrection": false,
  "PartialFourier": 1,
  "PatientPosition": "HFS",
  "PercentPhaseFOV": 100,
  "PercentSampling": 100,
  "PhaseEncodingDirection": "j-",
  "PhaseEncodingSteps": 64,
  "PhaseResolution": 1,
  "PixelBandwidth": 2520,
  "ProcedureStepDescription": "BNU_cst_2015^Guo.TaoMei",
  "ProtocolName": "ge_func_3x3x4_164",
  "PulseSequenceDetails": "%SiemensSeq%\\ep2d_bold",
  "ReceiveCoilName": "HeadMatrix",
  "ReconMatrixPE": 64,
  "RepetitionTime": 2,
  "SAR": 0.162696,
  "ScanOptions": "FS",
  "ScanningSequence": "EP",
  "SequenceName": "*epfid2d1_64",
  "SequenceVariant": "SK",
  "SeriesDescription": "ge_func_3x3x4_164",
  "SeriesNumber": 4,
  "ShimSetting": [-4454, -19493, -9784, 1400, -57, -480, 66, -169],
  "SliceThickness": 4,
  "SliceTiming": [0, 1.035, 0.06, 1.095, 0.1225, 1.155, 0.1825, 1.2175, 0.2425, 1.2775, 0.305, 1.3375, 0.365, 1.4, 0.425, 1.46, 0.4875, 1.52, 0.5475, 1.5825, 0.6075, 1.6425, 0.67, 1.7025, 0.73, 1.765, 0.79, 1.825, 0.8525, 1.885, 0.9125, 1.9475, 0.9725],
  "SoftwareVersions": "syngo MR B17",
  "SpacingBetweenSlices": 4.6,
  "StationName": "MRC35193",
  "TaskName": "CognitiveControl",
  "TotalReadoutTime": 0.0289803,
  "TxRefAmp": 334.684,
  "dcmmeta_affine": [
    [-3.1198182106018066, 3.124999945161469e-16, 0.2647945284843445, 108.416748046875],
    [3.124999945161469e-16, 3.125, -2.647945265178008e-17, -80.00753021240234],
    [0.179887592792511, 0.0, 4.592372417449951, -48.19821548461914],
    [0.0, 0.0, 0.0, 1.0]
],
  "dcmmeta_reorient_transform": [
    [0.0, -1.0, 0.0, 63.0],
    [1.0, 0.0, 0.0, 0.0],
    [0.0, 0.0, 1.0, 0.0],
    [0.0, 0.0, 0.0, 1.0]
],
  "dcmmeta_shape": [64, 64, 33, 164],
  "dcmmeta_slice_dim": 2,
  "dcmmeta_version": 0.6,
  "global": {
    "const": {
      "AcquisitionMatrix": [64, 0, 0, 64],
      "AngioFlag": "N",
      "BitsAllocated": 16,
      "BitsStored": 12,
      "Columns": 384,
      "EchoNumbers": 1,
      "EchoTime": 30.0,
      "EchoTrainLength": 1,
      "FlipAngle": 90.0,
      "HighBit": 11,
      "ImageOrientationPatient": [0.99834181651793, -1e-16, 0.0575640286263, 1e-16, 1.0, 0.0],
      "ImagePositionPatient": [-607.5876542647, -616.8674697876, -76.980231598387],
      "ImageType": [
        "ORIGINAL",
        "PRIMARY",
        "M",
        "ND",
        "MOSAIC"
],
      "ImagedNucleus": "1H",
      "ImagingFrequency": 123.253564,
      "InPlanePhaseEncodingDirection": "COL",
      "MRAcquisitionType": "2D",
      "MagneticFieldStrength": 3.0,
      "Manufacturer": "SIEMENS",
      "ManufacturerModelName": "TrioTim",
      "Modality": "MR",
      "NumberOfAverages": 1.0,
      "NumberOfPhaseEncodingSteps": 64,
      "PercentPhaseFieldOfView": 100.0,
      "PercentSampling": 100.0,
      "PerformedProcedureStepStartTime": "085740.562000",
      "PhotometricInterpretation": "MONOCHROME2",
      "PixelBandwidth": 2520.0,
      "PixelRepresentation": 0,
      "PixelSpacing": [3.125, 3.125],
      "ProtocolName": "ge_func_3x3x4_164",
      "RepetitionTime": 2000.0,
      "Rows": 384,
      "SAR": 0.16269645750553,
      "SamplesPerPixel": 1,
      "ScanOptions": "FS",
      "ScanningSequence": "EP",
      "SequenceName": "*epfid2d1_64",
      "SequenceVariant": "SK",
      "SeriesDescription": "ge_func_3x3x4_164",
      "SeriesNumber": 4,
      "SeriesTime": "092652.234000",
      "SliceLocation": -41.877391126825,
      "SliceThickness": 4.0,
      "SmallestImagePixelValue": 0,
      "SoftwareVersions": "syngo MR B17",
      "SpacingBetweenSlices": 4.5999999438855,
      "SpecificCharacterSet": "ISO_IR 100",
      "StudyID": "1",
      "StudyTime": "085739.484000",
      "TransmitCoilName": "Body",
      "VariableFlipAngleFlag": "N",
      "WindowCenterWidthExplanation": "Algo1",
      "dBdt": 0.0},
    "slices": {}
  },
  "time": {
    "samples": {
      "AcquisitionNumber": [1, 2, 3, 4, 5, 6, 7, 8, 9, 10, 11, 12, 13, 14, 15, 16, 17, 18, 19, 20, 21, 22, 23, 24, 25, 26, 27, 28, 29, 30, 31, 32, 33, 34, 35, 36, 37, 38, 39, 40, 41, 42, 43, 44, 45, 46, 47, 48, 49, 50, 51, 52, 53, 54, 55, 56, 57, 58, 59, 60, 61, 62, 63, 64, 65, 66, 67, 68, 69, 70, 71, 72, 73, 74, 75, 76, 77, 78, 79, 80, 81, 82, 83, 84, 85, 86, 87, 88, 89, 90, 91, 92, 93, 94, 95, 96, 97, 98, 99, 100, 101, 102, 103, 104, 105, 106, 107, 108, 109, 110, 111, 112, 113, 114, 115, 116, 117, 118, 119, 120, 121, 122, 123, 124, 125, 126, 127, 128, 129, 130, 131, 132, 133, 134, 135, 136, 137, 138, 139, 140, 141, 142, 143, 144, 145, 146, 147, 148, 149, 150, 151, 152, 153, 154, 155, 156, 157, 158, 159, 160, 161, 162, 163, 164],
      "AcquisitionTime": ["092557.405000", "092559.412500", "092601.420000", "092603.427500", "092605.437500", "092607.445000", "092609.452500", "092611.460000", "092613.470000", "092615.477500", "092617.485000", "092619.492500", "092621.500000", "092623.510000", "092625.517500", "092627.525000", "092629.532500", "092631.540000", "092633.550000", "092635.557500", "092637.565000", "092639.572500", "092641.582500", "092643.590000", "092645.597500", "092647.605000", "092649.612500", "092651.622500", "092653.630000", "092655.637500", "092657.645000", "092659.652500", "092701.662500", "092703.670000", "092705.677500", "092707.685000", "092709.692500", "092711.702500", "092713.710000", "092715.717500", "092717.725000", "092719.735000", "092721.742500", "092723.750000", "092725.757500", "092727.765000", "092729.775000", "092731.782500", "092733.790000", "092735.797500", "092737.805000", "092739.815000", "092741.822500", "092743.830000", "092745.837500", "092747.847500", "092749.855000", "092751.862500", "092753.870000", "092755.877500", "092757.887500", "092759.895000", "092801.902500", "092803.910000", "092805.917500", "092807.927500", "092809.935000", "092811.942500", "092813.950000", "092815.960000", "092817.967500", "092819.975000", "092821.982500", "092823.990000", "092826.000000", "092828.007500", "092830.015000", "092832.022500", "092834.030000", "092836.040000", "092838.047500", "092840.055000", "092842.062500", "092844.072500", "092846.080000", "092848.087500", "092850.095000", "092852.102500", "092854.112500", "092856.120000", "092858.127500", "092900.135000", "092902.142500", "092904.152500", "092906.160000", "092908.167500", "092910.175000", "092912.182500", "092914.192500", "092916.200000", "092918.207500", "092920.215000", "092922.225000", "092924.232500", "092926.240000", "092928.247500", "092930.255000", "092932.265000", "092934.272500", "092936.280000", "092938.287500", "092940.295000", "092942.305000", "092944.312500", "092946.320000", "092948.327500", "092950.337500", "092952.345000", "092954.352500", "092956.360000", "092958.367500", "093000.377500", "093002.385000", "093004.392500", "093006.400000", "093008.407500", "093010.417500", "093012.425000", "093014.432500", "093016.440000", "093018.450000", "093020.457500", "093022.465000", "093024.472500", "093026.480000", "093028.490000", "093030.497500", "093032.505000", "093034.512500", "093036.520000", "093038.530000", "093040.537500", "093042.545000", "093044.552500", "093046.560000", "093048.570000", "093050.577500", "093052.585000", "093054.592500", "093056.602500", "093058.610000", "093100.617500", "093102.625000", "093104.632500", "093106.642500", "093108.650000", "093110.657500", "093112.665000", "093114.672500", "093116.682500", "093118.690000", "093120.697500", "093122.705000", "093124.715000"],
      "ContentTime": ["092652.234000", "092652.234000", "092652.234000", "092652.234000", "092652.234000", "092652.250000", "092652.250000", "092652.250000", "092652.250000", "092652.250000", "092652.250000", "092652.265000", "092652.265000", "092652.265000", "092652.265000", "092652.265000", "092652.265000", "092652.265000", "092652.281000", "092652.281000", "092652.281000", "092652.281000", "092652.281000", "092652.281000", "092652.296000", "092652.296000", "092732.218000", "092732.234000", "092732.234000", "092732.234000", "092732.234000", "092732.250000", "092732.250000", "092732.250000", "092732.250000", "092732.250000", "092732.250000", "092732.250000", "092732.250000", "092732.265000", "092732.265000", "092732.265000", "092732.265000", "092732.265000", "092732.265000", "092732.265000", "092752.218000", "092752.234000", "092752.234000", "092752.234000", "092752.234000", "092752.234000", "092752.234000", "092752.234000", "092752.250000", "092752.250000", "092832.218000", "092832.234000", "092832.234000", "092832.234000", "092832.234000", "092832.234000", "092832.234000", "092832.250000", "092832.250000", "092832.250000", "092832.250000", "092832.250000", "092832.250000", "092832.265000", "092832.265000", "092832.265000", "092832.265000", "092832.265000", "092832.281000", "092832.281000", "092912.218000", "092912.234000", "092912.234000", "092912.234000", "092912.234000", "092912.234000", "092912.234000", "092912.234000", "092912.250000", "092912.250000", "092912.250000", "092912.250000", "092912.250000", "092912.250000", "092912.250000", "092912.250000", "092912.265000", "092912.265000", "092912.265000", "092912.265000", "092952.218000", "092952.234000", "092952.234000", "092952.234000", "092952.234000", "092952.234000", "092952.234000", "092952.234000", "092952.234000", "092952.250000", "092952.250000", "092952.250000", "092952.250000", "092952.265000", "092952.265000", "092952.265000", "092952.265000", "092952.281000", "092952.281000", "092952.281000", "093032.218000", "093032.234000", "093032.234000", "093032.234000", "093032.234000", "093032.234000", "093032.250000", "093032.250000", "093032.250000", "093032.250000", "093032.250000", "093032.250000", "093032.250000", "093032.250000", "093032.265000", "093032.265000", "093032.265000", "093032.265000", "093032.265000", "093032.265000", "093112.218000", "093112.234000", "093112.234000", "093112.234000", "093112.234000", "093112.234000", "093112.250000", "093112.250000", "093112.250000", "093112.250000", "093112.250000", "093112.250000", "093112.250000", "093112.250000", "093112.265000", "093112.265000", "093112.265000", "093112.265000", "093112.265000", "093112.265000", "093126.437000", "093126.437000", "093126.437000", "093126.437000", "093126.437000", "093126.453000", "093126.453000", "093126.453000"],
      "InstanceCreationTime": ["092652.234000", "092652.234000", "092652.234000", "092652.234000", "092652.234000", "092652.250000", "092652.250000", "092652.250000", "092652.250000", "092652.250000", "092652.250000", "092652.265000", "092652.265000", "092652.265000", "092652.265000", "092652.265000", "092652.265000", "092652.265000", "092652.281000", "092652.281000", "092652.281000", "092652.281000", "092652.281000", "092652.281000", "092652.296000", "092652.296000", "092732.218000", "092732.234000", "092732.234000", "092732.234000", "092732.234000", "092732.250000", "092732.250000", "092732.250000", "092732.250000", "092732.250000", "092732.250000", "092732.250000", "092732.250000", "092732.265000", "092732.265000", "092732.265000", "092732.265000", "092732.265000", "092732.265000", "092732.265000", "092752.218000", "092752.234000", "092752.234000", "092752.234000", "092752.234000", "092752.234000", "092752.234000", "092752.234000", "092752.250000", "092752.250000", "092832.218000", "092832.234000", "092832.234000", "092832.234000", "092832.234000", "092832.234000", "092832.234000", "092832.250000", "092832.250000", "092832.250000", "092832.250000", "092832.250000", "092832.250000", "092832.265000", "092832.265000", "092832.265000", "092832.265000", "092832.265000", "092832.281000", "092832.281000", "092912.218000", "092912.234000", "092912.234000", "092912.234000", "092912.234000", "092912.234000", "092912.234000", "092912.234000", "092912.250000", "092912.250000", "092912.250000", "092912.250000", "092912.250000", "092912.250000", "092912.250000", "092912.250000", "092912.265000", "092912.265000", "092912.265000", "092912.265000", "092952.218000", "092952.234000", "092952.234000", "092952.234000", "092952.234000", "092952.234000", "092952.234000", "092952.234000", "092952.234000", "092952.250000", "092952.250000", "092952.250000", "092952.250000", "092952.265000", "092952.265000", "092952.265000", "092952.265000", "092952.281000", "092952.281000", "092952.281000", "093032.218000", "093032.234000", "093032.234000", "093032.234000", "093032.234000", "093032.234000", "093032.250000", "093032.250000", "093032.250000", "093032.250000", "093032.250000", "093032.250000", "093032.250000", "093032.250000", "093032.265000", "093032.265000", "093032.265000", "093032.265000", "093032.265000", "093032.265000", "093112.218000", "093112.234000", "093112.234000", "093112.234000", "093112.234000", "093112.234000", "093112.250000", "093112.250000", "093112.250000", "093112.250000", "093112.250000", "093112.250000", "093112.250000", "093112.250000", "093112.265000", "093112.265000", "093112.265000", "093112.265000", "093112.265000", "093112.265000", "093126.437000", "093126.437000", "093126.437000", "093126.437000", "093126.437000", "093126.453000", "093126.453000", "093126.453000"],
      "InstanceNumber": [1, 2, 3, 4, 5, 6, 7, 8, 9, 10, 11, 12, 13, 14, 15, 16, 17, 18, 19, 20, 21, 22, 23, 24, 25, 26, 27, 28, 29, 30, 31, 32, 33, 34, 35, 36, 37, 38, 39, 40, 41, 42, 43, 44, 45, 46, 47, 48, 49, 50, 51, 52, 53, 54, 55, 56, 57, 58, 59, 60, 61, 62, 63, 64, 65, 66, 67, 68, 69, 70, 71, 72, 73, 74, 75, 76, 77, 78, 79, 80, 81, 82, 83, 84, 85, 86, 87, 88, 89, 90, 91, 92, 93, 94, 95, 96, 97, 98, 99, 100, 101, 102, 103, 104, 105, 106, 107, 108, 109, 110, 111, 112, 113, 114, 115, 116, 117, 118, 119, 120, 121, 122, 123, 124, 125, 126, 127, 128, 129, 130, 131, 132, 133, 134, 135, 136, 137, 138, 139, 140, 141, 142, 143, 144, 145, 146, 147, 148, 149, 150, 151, 152, 153, 154, 155, 156, 157, 158, 159, 160, 161, 162, 163, 164],
      "LargestImagePixelValue": [1790, 1713, 1671, 1678, 1841, 1681, 1691, 1659, 1643, 1639, 1669, 1703, 1670, 1683, 1684, 1895, 1696, 1712, 1713, 1677, 1673, 1671, 1691, 1750, 1696, 1684, 1684, 1674, 1688, 1718, 1701, 1762, 1722, 1712, 1708, 1712, 1729, 1697, 1706, 1712, 1717, 1703, 1716, 1712, 1703, 1717, 1703, 1709, 1692, 1687, 1700, 1704, 1694, 1692, 1688, 1678, 1683, 1675, 1684, 1683, 1672, 1683, 1663, 1666, 1697, 1699, 1672, 1722, 1710, 1684, 1690, 1700, 1717, 1706, 1697, 1710, 1920, 1685, 1687, 1695, 1700, 1691, 1687, 1703, 1690, 1676, 1693, 1680, 1688, 1805, 1677, 1683, 1705, 1874, 1691, 1702, 1710, 1694, 1680, 1895, 1713, 1668, 1671, 1671, 1663, 1651, 1643, 1668, 1658, 1655, 1664, 1671, 1648, 1674, 1697, 1693, 1688, 1681, 1706, 1692, 1727, 1683, 1705, 1842, 1739, 1731, 1719, 1703, 1718, 1731, 1749, 1756, 1756, 1773, 1759, 1730, 1751, 1737, 1753, 1757, 1745, 1752, 1760, 1742, 1765, 1738, 1761, 1753, 1767, 1751, 1745, 1747, 1744, 1750, 1771, 1748, 1748, 1750, 1748, 1816, 1751, 1751, 1744, 1745],
      "WindowCenter": [734.0, 732.0, 732.0, 732.0, 732.0, 731.0, 732.0, 732.0, 731.0, 731.0, 731.0, 732.0, 732.0, 732.0, 732.0, 733.0, 732.0, 732.0, 733.0, 732.0, 732.0, 732.0, 732.0, 732.0, 732.0, 731.0, 731.0, 731.0, 732.0, 733.0, 733.0, 733.0, 732.0, 732.0, 732.0, 733.0, 732.0, 732.0, 731.0, 732.0, 732.0, 732.0, 732.0, 733.0, 733.0, 733.0, 732.0, 732.0, 732.0, 733.0, 733.0, 732.0, 732.0, 732.0, 733.0, 733.0, 733.0, 733.0, 733.0, 734.0, 733.0, 733.0, 732.0, 732.0, 733.0, 733.0, 733.0, 733.0, 734.0, 734.0, 734.0, 733.0, 733.0, 733.0, 733.0, 733.0, 734.0, 733.0, 732.0, 732.0, 733.0, 733.0, 733.0, 733.0, 732.0, 733.0, 734.0, 734.0, 733.0, 734.0, 732.0, 733.0, 734.0, 734.0, 733.0, 732.0, 733.0, 734.0, 733.0, 734.0, 733.0, 732.0, 732.0, 733.0, 733.0, 733.0, 733.0, 733.0, 734.0, 735.0, 735.0, 733.0, 733.0, 733.0, 734.0, 735.0, 734.0, 733.0, 733.0, 734.0, 734.0, 734.0, 734.0, 734.0, 733.0, 733.0, 733.0, 733.0, 733.0, 733.0, 733.0, 734.0, 734.0, 733.0, 734.0, 734.0, 734.0, 734.0, 734.0, 734.0, 733.0, 734.0, 734.0, 734.0, 734.0, 734.0, 734.0, 735.0, 734.0, 734.0, 734.0, 734.0, 734.0, 734.0, 735.0, 734.0, 734.0, 734.0, 734.0, 735.0, 735.0, 734.0, 735.0, 735.0],
      "WindowWidth": [1596.0, 1592.0, 1592.0, 1591.0, 1593.0, 1589.0, 1592.0, 1590.0, 1588.0, 1588.0, 1589.0, 1591.0, 1591.0, 1591.0, 1590.0, 1594.0, 1591.0, 1592.0, 1593.0, 1592.0, 1590.0, 1590.0, 1591.0, 1593.0, 1590.0, 1589.0, 1589.0, 1590.0, 1591.0, 1593.0, 1593.0, 1594.0, 1592.0, 1592.0, 1591.0, 1593.0, 1591.0, 1590.0, 1589.0, 1592.0, 1591.0, 1591.0, 1592.0, 1593.0, 1594.0, 1594.0, 1592.0, 1591.0, 1592.0, 1594.0, 1594.0, 1592.0, 1590.0, 1592.0, 1593.0, 1595.0, 1595.0, 1595.0, 1595.0, 1596.0, 1595.0, 1593.0, 1592.0, 1592.0, 1595.0, 1594.0, 1593.0, 1594.0, 1595.0, 1595.0, 1595.0, 1593.0, 1593.0, 1592.0, 1593.0, 1593.0, 1596.0, 1592.0, 1592.0, 1592.0, 1593.0, 1593.0, 1593.0, 1592.0, 1592.0, 1593.0, 1596.0, 1596.0, 1594.0, 1595.0, 1592.0, 1594.0, 1596.0, 1598.0, 1592.0, 1592.0, 1593.0, 1595.0, 1595.0, 1597.0, 1593.0, 1592.0, 1592.0, 1593.0, 1594.0, 1594.0, 1593.0, 1593.0, 1596.0, 1598.0, 1599.0, 1594.0, 1592.0, 1593.0, 1597.0, 1599.0, 1595.0, 1594.0, 1594.0, 1596.0, 1598.0, 1597.0, 1596.0, 1598.0, 1595.0, 1595.0, 1595.0, 1593.0, 1593.0, 1592.0, 1594.0, 1595.0, 1595.0, 1595.0, 1595.0, 1596.0, 1597.0, 1597.0, 1597.0, 1596.0, 1595.0, 1596.0, 1597.0, 1597.0, 1597.0, 1596.0, 1598.0, 1598.0, 1597.0, 1598.0, 1597.0, 1597.0, 1598.0, 1597.0, 1598.0, 1598.0, 1597.0, 1598.0, 1597.0, 1599.0, 1599.0, 1598.0, 1599.0, 1599.0]
    },
    "slices": {}
  }
}