{
  "AcquisitionMatrixPE": 64,
  "AcquisitionNumber": 1,
  "AcquisitionTime": "15:23:30.340000",
  "BandwidthPerPixelPhaseEncode": 33.967,
  "BaseResolution": 64,
  "CoilCombinationMethod": "Sum of Squares",
  "CoilString": "C:HEA;HEP",
  "ConversionSoftware": "dcm2niix",
  "ConversionSoftwareVersion": "v1.0.20220720",
  "DerivedVendorReportedEchoSpacing": 0.000460005,
  "DeviceSerialNumber": "35193",
  "DwellTime": 3.1e-06,
  "EchoTime": 0.03,
  "EffectiveEchoSpacing": 0.000460005,
  "FlipAngle": 90,
  "HeudiconvVersion": "1.1.6",
  "ImageOrientationPatientDICOM": [0.999781, -1e-16, 0.0209424, 1e-16, 1, 0],
  "ImageOrientationText": "Tra>Sag(1.2)",
  "ImageType": [
    "ORIGINAL",
    "PRIMARY",
    "M",
    "ND",
    "MOSAIC"
],
  "ImagingFrequency": 123.254,
  "InPlanePhaseEncodingDirectionDICOM": "COL",
  "InstitutionAddress": "Xinjiekouwai Street No 19,Beijing,Haidian District,CN,100875",
  "InstitutionName": "BNU MRI Center",
  "InstitutionalDepartmentName": "Department",
  "MRAcquisitionType": "2D",
  "MagneticFieldStrength": 3,
  "Manufacturer": "Siemens",
  "ManufacturersModelName": "TrioTim",
  "MatrixCoilMode": "SENSE",
  "Modality": "MR",
  "NonlinearGradientCorrection": false,
  "PartialFourier": 1,
  "PatientPosition": "HFS",
  "PercentPhaseFOV": 100,
  "PercentSampling": 100,
  "PhaseEncodingDirection": "j-",
  "PhaseEncodingSteps": 64,
  "PhaseResolution": 1,
  "PixelBandwidth": 2520,
  "ProcedureStepDescription": "BNU_cst_2015^Guo.TaoMei",
  "ProtocolName": "ge_func_3x3x4_164",
  "PulseSequenceDetails": "%SiemensSeq%\\ep2d_bold",
  "ReceiveCoilName": "HeadMatrix",
  "ReconMatrixPE": 64,
  "RepetitionTime": 2,
  "SAR": 0.164636,
  "ScanOptions": "FS",
  "ScanningSequence": "EP",
  "SequenceName": "*epfid2d1_64",
  "SequenceVariant": "SK",
  "SeriesDescription": "ge_func_3x3x4_164",
  "SeriesNumber": 3,
  "ShimSetting": [-4473, -19428, -9786, 879, -84, -322, -243, -37],
  "SliceThickness": 4,
  "SliceTiming": [0, 1.0325, 0.06, 1.095, 0.12, 1.155, 0.1825, 1.215, 0.2425, 1.2775, 0.3025, 1.3375, 0.365, 1.3975, 0.425, 1.46, 0.485, 1.52, 0.5475, 1.58, 0.6075, 1.6425, 0.6675, 1.7025, 0.73, 1.7625, 0.79, 1.825, 0.85, 1.885, 0.9125, 1.945, 0.9725],
  "SoftwareVersions": "syngo MR B17",
  "SpacingBetweenSlices": 4.6,
  "StationName": "MRC35193",
  "TaskName": "CognitiveControl",
  "TotalReadoutTime": 0.0289803,
  "TxRefAmp": 345.35,
  "dcmmeta_affine": [
    [-3.124314546585083, 3.124999945161469e-16, 0.09633512794971466, 99.78610229492188],
    [3.124999945161469e-16, 3.125, -9.633513331456909e-18, -92.15210723876953],
    [0.06544505804777145, 0.0, 4.598991394042969, -67.58171081542969],
    [0.0, 0.0, 0.0, 1.0]
],
  "dcmmeta_reorient_transform": [
    [0.0, -1.0, 0.0, 63.0],
    [1.0, 0.0, 0.0, 0.0],
    [0.0, 0.0, 1.0, 0.0],
    [0.0, 0.0, 0.0, 1.0]
],
  "dcmmeta_shape": [64, 64, 33, 164],
  "dcmmeta_slice_dim": 2,
  "dcmmeta_version": 0.6,
  "global": {
    "const": {
      "AcquisitionMatrix": [64, 0, 0, 64],
      "AngioFlag": "N",
      "BitsAllocated": 16,
      "BitsStored": 12,
      "Columns": 384,
      "EchoNumbers": 1,
      "EchoTime": 30.0,
      "EchoTrainLength": 1,
      "FlipAngle": 90.0,
      "HighBit": 11,
      "ImageOrientationPatient": [0.9997806834792, -1e-16, 0.02094241967531, 1e-16, 1.0, 0.0],
      "ImagePositionPatient": [-599.67644558042, -604.72289133072, -78.052924339365],
      "ImageType": [
        "ORIGINAL",
        "PRIMARY",
        "M",
        "ND",
        "MOSAIC"
],
      "ImagedNucleus": "1H",
      "ImagingFrequency": 123.253947,
      "InPlanePhaseEncodingDirection": "COL",
      "MRAcquisitionType": "2D",
      "MagneticFieldStrength": 3.0,
      "Manufacturer": "SIEMENS",
      "ManufacturerModelName": "TrioTim",
      "Modality": "MR",
      "NumberOfAverages": 1.0,
      "NumberOfPhaseEncodingSteps": 64,
      "PercentPhaseFieldOfView": 100.0,
      "PercentSampling": 100.0,
      "PerformedProcedureStepStartTime": "151450.656000",
      "PhotometricInterpretation": "MONOCHROME2",
      "PixelBandwidth": 2520.0,
      "PixelRepresentation": 0,
      "PixelSpacing": [3.125, 3.125],
      "ProtocolName": "ge_func_3x3x4_164",
      "RepetitionTime": 2000.0,
      "Rows": 384,
      "SAR": 0.16463570553443,
      "SamplesPerPixel": 1,
      "ScanOptions": "FS",
      "ScanningSequence": "EP",
      "SequenceName": "*epfid2d1_64",
      "SequenceVariant": "SK",
      "SeriesDescription": "ge_func_3x3x4_164",
      "SeriesNumber": 3,
      "SeriesTime": "152412.750000",
      "SliceLocation": -65.477130250818,
      "SliceThickness": 4.0,
      "SmallestImagePixelValue": 0,
      "SoftwareVersions": "syngo MR B17",
      "SpacingBetweenSlices": 4.600000011642,
      "SpecificCharacterSet": "ISO_IR 100",
      "StudyID": "1",
      "StudyTime": "151450.578000",
      "TransmitCoilName": "Body",
      "VariableFlipAngleFlag": "N",
      "WindowCenterWidthExplanation": "Algo1",
      "dBdt": 0.0},
    "slices": {}
  },
  "time": {
    "samples": {
      "AcquisitionNumber": [1, 2, 3, 4, 5, 6, 7, 8, 9, 10, 11, 12, 13, 14, 15, 16, 17, 18, 19, 20, 21, 22, 23, 24, 25, 26, 27, 28, 29, 30, 31, 32, 33, 34, 35, 36, 37, 38, 39, 40, 41, 42, 43, 44, 45, 46, 47, 48, 49, 50, 51, 52, 53, 54, 55, 56, 57, 58, 59, 60, 61, 62, 63, 64, 65, 66, 67, 68, 69, 70, 71, 72, 73, 74, 75, 76, 77, 78, 79, 80, 81, 82, 83, 84, 85, 86, 87, 88, 89, 90, 91, 92, 93, 94, 95, 96, 97, 98, 99, 100, 101, 102, 103, 104, 105, 106, 107, 108, 109, 110, 111, 112, 113, 114, 115, 116, 117, 118, 119, 120, 121, 122, 123, 124, 125, 126, 127, 128, 129, 130, 131, 132, 133, 134, 135, 136, 137, 138, 139, 140, 141, 142, 143, 144, 145, 146, 147, 148, 149, 150, 151, 152, 153, 154, 155, 156, 157, 158, 159, 160, 161, 162, 163, 164],
      "AcquisitionTime": ["152330.340000", "152332.347500", "152334.355000", "152336.362500", "152338.372500", "152340.380000", "152342.387500", "152344.395000", "152346.402500", "152348.412500", "152350.420000", "152352.427500", "152354.435000", "152356.445000", "152358.452500", "152400.460000", "152402.467500", "152404.475000", "152406.485000", "152408.492500", "152410.500000", "152412.507500", "152414.515000", "152416.525000", "152418.532500", "152420.540000", "152422.547500", "152424.557500", "152426.565000", "152428.572500", "152430.580000", "152432.587500", "152434.597500", "152436.605000", "152438.612500", "152440.620000", "152442.627500", "152444.637500", "152446.645000", "152448.652500", "152450.660000", "152452.667500", "152454.677500", "152456.685000", "152458.692500", "152500.700000", "152502.710000", "152504.717500", "152506.725000", "152508.732500", "152510.740000", "152512.750000", "152514.757500", "152516.765000", "152518.772500", "152520.780000", "152522.790000", "152524.797500", "152526.805000", "152528.812500", "152530.822500", "152532.830000", "152534.837500", "152536.845000", "152538.852500", "152540.862500", "152542.870000", "152544.877500", "152546.885000", "152548.892500", "152550.902500", "152552.910000", "152554.917500", "152556.925000", "152558.935000", "152600.942500", "152602.950000", "152604.957500", "152606.965000", "152608.975000", "152610.982500", "152612.990000", "152614.997500", "152617.005000", "152619.015000", "152621.022500", "152623.030000", "152625.037500", "152627.045000", "152629.055000", "152631.062500", "152633.070000", "152635.077500", "152637.087500", "152639.095000", "152641.102500", "152643.110000", "152645.117500", "152647.127500", "152649.135000", "152651.142500", "152653.150000", "152655.157500", "152657.167500", "152659.175000", "152701.182500", "152703.190000", "152705.200000", "152707.207500", "152709.215000", "152711.222500", "152713.230000", "152715.240000", "152717.247500", "152719.255000", "152721.262500", "152723.270000", "152725.280000", "152727.287500", "152729.295000", "152731.302500", "152733.312500", "152735.320000", "152737.327500", "152739.335000", "152741.342500", "152743.352500", "152745.360000", "152747.367500", "152749.375000", "152751.382500", "152753.392500", "152755.400000", "152757.407500", "152759.415000", "152801.425000", "152803.432500", "152805.440000", "152807.447500", "152809.455000", "152811.465000", "152813.472500", "152815.480000", "152817.487500", "152819.495000", "152821.505000", "152823.512500", "152825.520000", "152827.527500", "152829.535000", "152831.545000", "152833.552500", "152835.560000", "152837.567500", "152839.577500", "152841.585000", "152843.592500", "152845.600000", "152847.607500", "152849.617500", "152851.625000", "152853.632500", "152855.640000", "152857.647500"],
      "ContentTime": ["152412.750000", "152412.765000", "152412.765000", "152412.765000", "152412.765000", "152412.781000", "152412.781000", "152412.781000", "152412.781000", "152412.781000", "152412.781000", "152412.781000", "152412.781000", "152412.796000", "152412.796000", "152412.796000", "152412.796000", "152412.796000", "152412.796000", "152412.796000", "152452.750000", "152452.750000", "152452.765000", "152452.765000", "152452.765000", "152452.765000", "152452.765000", "152452.765000", "152452.765000", "152452.765000", "152452.781000", "152452.781000", "152452.781000", "152452.781000", "152452.781000", "152452.781000", "152452.781000", "152452.781000", "152452.796000", "152452.796000", "152532.750000", "152532.750000", "152532.750000", "152532.750000", "152532.750000", "152532.765000", "152532.765000", "152532.765000", "152532.765000", "152532.765000", "152532.765000", "152532.765000", "152532.765000", "152532.781000", "152532.781000", "152532.781000", "152532.781000", "152532.781000", "152532.781000", "152532.781000", "152612.750000", "152612.750000", "152612.750000", "152612.750000", "152612.750000", "152612.765000", "152612.765000", "152612.765000", "152612.765000", "152612.765000", "152612.781000", "152612.781000", "152612.781000", "152612.781000", "152612.781000", "152612.796000", "152612.796000", "152612.796000", "152612.796000", "152612.796000", "152652.750000", "152652.750000", "152652.750000", "152652.765000", "152652.765000", "152652.765000", "152652.781000", "152652.781000", "152652.781000", "152652.781000", "152652.781000", "152652.796000", "152652.796000", "152652.796000", "152652.796000", "152652.796000", "152652.796000", "152652.812000", "152652.812000", "152652.812000", "152732.750000", "152732.750000", "152732.750000", "152732.750000", "152732.750000", "152732.765000", "152732.765000", "152732.765000", "152732.765000", "152732.765000", "152732.765000", "152732.765000", "152732.765000", "152732.781000", "152732.781000", "152732.781000", "152732.781000", "152732.781000", "152732.781000", "152732.781000", "152812.750000", "152812.750000", "152812.765000", "152812.765000", "152812.765000", "152812.765000", "152812.765000", "152812.765000", "152812.765000", "152812.781000", "152812.781000", "152812.781000", "152812.781000", "152812.781000", "152812.781000", "152812.781000", "152812.781000", "152812.796000", "152812.796000", "152812.796000", "152852.750000", "152852.750000", "152852.750000", "152852.750000", "152852.750000", "152852.765000", "152852.765000", "152852.765000", "152852.765000", "152852.765000", "152852.765000", "152852.765000", "152852.765000", "152852.781000", "152852.781000", "152852.781000", "152852.781000", "152852.781000", "152852.781000", "152852.781000", "152859.328000", "152859.343000", "152859.343000", "152859.343000"],
      "InstanceCreationTime": ["152412.750000", "152412.765000", "152412.765000", "152412.765000", "152412.765000", "152412.781000", "152412.781000", "152412.781000", "152412.781000", "152412.781000", "152412.781000", "152412.781000", "152412.781000", "152412.796000", "152412.796000", "152412.796000", "152412.796000", "152412.796000", "152412.796000", "152412.796000", "152452.750000", "152452.750000", "152452.765000", "152452.765000", "152452.765000", "152452.765000", "152452.765000", "152452.765000", "152452.765000", "152452.765000", "152452.781000", "152452.781000", "152452.781000", "152452.781000", "152452.781000", "152452.781000", "152452.781000", "152452.781000", "152452.796000", "152452.796000", "152532.750000", "152532.750000", "152532.750000", "152532.750000", "152532.750000", "152532.765000", "152532.765000", "152532.765000", "152532.765000", "152532.765000", "152532.765000", "152532.765000", "152532.765000", "152532.781000", "152532.781000", "152532.781000", "152532.781000", "152532.781000", "152532.781000", "152532.781000", "152612.750000", "152612.750000", "152612.750000", "152612.750000", "152612.750000", "152612.765000", "152612.765000", "152612.765000", "152612.765000", "152612.765000", "152612.781000", "152612.781000", "152612.781000", "152612.781000", "152612.781000", "152612.796000", "152612.796000", "152612.796000", "152612.796000", "152612.796000", "152652.750000", "152652.750000", "152652.750000", "152652.765000", "152652.765000", "152652.765000", "152652.781000", "152652.781000", "152652.781000", "152652.781000", "152652.781000", "152652.796000", "152652.796000", "152652.796000", "152652.796000", "152652.796000", "152652.796000", "152652.812000", "152652.812000", "152652.812000", "152732.750000", "152732.750000", "152732.750000", "152732.750000", "152732.750000", "152732.765000", "152732.765000", "152732.765000", "152732.765000", "152732.765000", "152732.765000", "152732.765000", "152732.765000", "152732.781000", "152732.781000", "152732.781000", "152732.781000", "152732.781000", "152732.781000", "152732.781000", "152812.750000", "152812.750000", "152812.765000", "152812.765000", "152812.765000", "152812.765000", "152812.765000", "152812.765000", "152812.765000", "152812.781000", "152812.781000", "152812.781000", "152812.781000", "152812.781000", "152812.781000", "152812.781000", "152812.781000", "152812.796000", "152812.796000", "152812.796000", "152852.750000", "152852.750000", "152852.750000", "152852.750000", "152852.750000", "152852.765000", "152852.765000", "152852.765000", "152852.765000", "152852.765000", "152852.765000", "152852.765000", "152852.765000", "152852.781000", "152852.781000", "152852.781000", "152852.781000", "152852.781000", "152852.781000", "152852.781000", "152859.328000", "152859.343000", "152859.343000", "152859.343000"],
      "InstanceNumber": [1, 2, 3, 4, 5, 6, 7, 8, 9, 10, 11, 12, 13, 14, 15, 16, 17, 18, 19, 20, 21, 22, 23, 24, 25, 26, 27, 28, 29, 30, 31, 32, 33, 34, 35, 36, 37, 38, 39, 40, 41, 42, 43, 44, 45, 46, 47, 48, 49, 50, 51, 52, 53, 54, 55, 56, 57, 58, 59, 60, 61, 62, 63, 64, 65, 66, 67, 68, 69, 70, 71, 72, 73, 74, 75, 76, 77, 78, 79, 80, 81, 82, 83, 84, 85, 86, 87, 88, 89, 90, 91, 92, 93, 94, 95, 96, 97, 98, 99, 100, 101, 102, 103, 104, 105, 106, 107, 108, 109, 110, 111, 112, 113, 114, 115, 116, 117, 118, 119, 120, 121, 122, 123, 124, 125, 126, 127, 128, 129, 130, 131, 132, 133, 134, 135, 136, 137, 138, 139, 140, 141, 142, 143, 144, 145, 146, 147, 148, 149, 150, 151, 152, 153, 154, 155, 156, 157, 158, 159, 160, 161, 162, 163, 164],
      "LargestImagePixelValue": [1904, 2235, 2603, 2529, 2039, 2585, 2534, 2210, 2351, 2615, 2544, 1807, 2476, 2392, 1961, 2478, 2451, 2355, 2280, 2228, 2261, 2294, 2482, 2154, 2070, 2182, 2572, 2275, 1969, 2323, 2243, 2237, 2411, 2642, 2375, 2563, 2526, 2438, 2412, 2476, 2411, 2599, 2128, 2547, 2784, 2059, 2512, 2461, 2002, 2610, 2002, 2528, 2463, 2229, 2233, 2374, 2352, 2153, 2309, 2652, 2051, 1997, 2499, 2639, 2558, 1857, 2301, 2287, 2407, 2670, 2512, 1988, 2567, 2480, 2590, 1888, 2340, 2294, 2562, 2761, 1936, 1999, 2244, 2550, 2580, 2503, 2358, 2724, 2329, 2323, 2588, 2474, 2216, 2279, 2695, 2181, 2363, 2171, 2399, 2887, 2495, 2023, 2319, 2370, 2488, 2539, 2434, 2308, 2386, 2225, 2659, 2639, 2420, 2152, 2533, 2672, 2237, 2204, 2593, 2687, 2389, 2293, 2551, 2410, 2596, 2116, 2489, 1975, 2723, 2753, 2243, 2463, 2263, 2399, 2320, 2288, 2282, 2209, 2462, 2465, 2297, 2790, 2382, 2624, 2292, 2736, 2534, 2233, 2592, 2146, 2576, 2902, 2319, 2523, 2388, 2181, 2555, 2409, 2617, 2002, 2294, 2384, 2671, 2345],
      "WindowCenter": [738.0, 738.0, 738.0, 736.0, 733.0, 735.0, 735.0, 733.0, 734.0, 734.0, 734.0, 730.0, 734.0, 733.0, 732.0, 734.0, 733.0, 733.0, 734.0, 735.0, 734.0, 734.0, 736.0, 734.0, 734.0, 735.0, 736.0, 735.0, 734.0, 736.0, 736.0, 737.0, 737.0, 737.0, 737.0, 738.0, 736.0, 735.0, 735.0, 736.0, 735.0, 736.0, 733.0, 734.0, 735.0, 732.0, 734.0, 734.0, 732.0, 735.0, 732.0, 734.0, 733.0, 733.0, 734.0, 734.0, 735.0, 734.0, 734.0, 736.0, 734.0, 734.0, 735.0, 735.0, 735.0, 733.0, 735.0, 735.0, 735.0, 736.0, 736.0, 733.0, 735.0, 735.0, 735.0, 734.0, 736.0, 735.0, 736.0, 737.0, 734.0, 734.0, 736.0, 737.0, 736.0, 736.0, 736.0, 737.0, 735.0, 735.0, 737.0, 736.0, 735.0, 735.0, 737.0, 735.0, 735.0, 736.0, 736.0, 737.0, 736.0, 735.0, 737.0, 736.0, 736.0, 737.0, 736.0, 736.0, 736.0, 735.0, 736.0, 736.0, 736.0, 735.0, 736.0, 736.0, 735.0, 735.0, 735.0, 735.0, 734.0, 735.0, 735.0, 735.0, 735.0, 733.0, 735.0, 733.0, 735.0, 735.0, 733.0, 735.0, 734.0, 735.0, 735.0, 735.0, 736.0, 735.0, 737.0, 737.0, 736.0, 737.0, 736.0, 737.0, 736.0, 737.0, 735.0, 734.0, 736.0, 734.0, 735.0, 736.0, 734.0, 735.0, 736.0, 734.0, 735.0, 735.0, 737.0, 735.0, 736.0, 737.0, 737.0, 736.0],
      "WindowWidth": [1591.0, 1590.0, 1590.0, 1584.0, 1577.0, 1583.0, 1582.0, 1578.0, 1579.0, 1580.0, 1578.0, 1569.0, 1579.0, 1578.0, 1575.0, 1579.0, 1578.0, 1577.0, 1579.0, 1582.0, 1580.0, 1580.0, 1585.0, 1580.0, 1580.0, 1583.0, 1587.0, 1583.0, 1580.0, 1587.0, 1586.0, 1587.0, 1589.0, 1590.0, 1587.0, 1590.0, 1586.0, 1584.0, 1584.0, 1585.0, 1584.0, 1585.0, 1577.0, 1580.0, 1582.0, 1575.0, 1580.0, 1579.0, 1575.0, 1584.0, 1575.0, 1579.0, 1579.0, 1578.0, 1579.0, 1581.0, 1582.0, 1579.0, 1581.0, 1586.0, 1581.0, 1580.0, 1584.0, 1583.0, 1584.0, 1576.0, 1582.0, 1582.0, 1583.0, 1586.0, 1585.0, 1576.0, 1583.0, 1582.0, 1583.0, 1578.0, 1585.0, 1583.0, 1586.0, 1588.0, 1579.0, 1581.0, 1586.0, 1587.0, 1587.0, 1585.0, 1584.0, 1588.0, 1584.0, 1583.0, 1588.0, 1586.0, 1584.0, 1582.0, 1588.0, 1582.0, 1584.0, 1584.0, 1585.0, 1588.0, 1587.0, 1583.0, 1587.0, 1585.0, 1586.0, 1588.0, 1586.0, 1585.0, 1586.0, 1582.0, 1584.0, 1586.0, 1587.0, 1582.0, 1584.0, 1587.0, 1583.0, 1582.0, 1583.0, 1583.0, 1579.0, 1582.0, 1584.0, 1582.0, 1582.0, 1576.0, 1582.0, 1576.0, 1583.0, 1583.0, 1578.0, 1582.0, 1579.0, 1583.0, 1581.0, 1582.0, 1584.0, 1583.0, 1587.0, 1588.0, 1587.0, 1589.0, 1585.0, 1588.0, 1585.0, 1587.0, 1584.0, 1581.0, 1588.0, 1581.0, 1583.0, 1586.0, 1579.0, 1583.0, 1585.0, 1581.0, 1584.0, 1582.0, 1589.0, 1582.0, 1585.0, 1588.0, 1589.0, 1586.0]
    },
    "slices": {}
  }
}