{
  "AcquisitionMatrixPE": 64,
  "AcquisitionNumber": 1,
  "AcquisitionTime": "15:17:19.325000",
  "BandwidthPerPixelPhaseEncode": 33.967,
  "BaseResolution": 64,
  "CoilCombinationMethod": "Sum of Squares",
  "CoilString": "C:HEA;HEP",
  "ConversionSoftware": "dcm2niix",
  "ConversionSoftwareVersion": "v1.0.20220720",
  "DerivedVendorReportedEchoSpacing": 0.000460005,
  "DeviceSerialNumber": "35193",
  "DwellTime": 3.1e-06,
  "EchoTime": 0.03,
  "EffectiveEchoSpacing": 0.000460005,
  "FlipAngle": 90,
  "HeudiconvVersion": "1.1.6",
  "ImageOrientationPatientDICOM": [0.999781, -1e-16, 0.0209424, 1e-16, 1, 0],
  "ImageOrientationText": "Tra>Sag(1.2)",
  "ImageType": [
    "ORIGINAL",
    "PRIMARY",
    "M",
    "ND",
    "MOSAIC"
],
  "ImagingFrequency": 123.254,
  "InPlanePhaseEncodingDirectionDICOM": "COL",
  "InstitutionAddress": "Xinjiekouwai Street No 19,Beijing,Haidian District,CN,100875",
  "InstitutionName": "BNU MRI Center",
  "InstitutionalDepartmentName": "Department",
  "MRAcquisitionType": "2D",
  "MagneticFieldStrength": 3,
  "Manufacturer": "Siemens",
  "ManufacturersModelName": "TrioTim",
  "MatrixCoilMode": "SENSE",
  "Modality": "MR",
  "NonlinearGradientCorrection": false,
  "PartialFourier": 1,
  "PatientPosition": "HFS",
  "PercentPhaseFOV": 100,
  "PercentSampling": 100,
  "PhaseEncodingDirection": "j-",
  "PhaseEncodingSteps": 64,
  "PhaseResolution": 1,
  "PixelBandwidth": 2520,
  "ProcedureStepDescription": "BNU_cst_2015^Guo.TaoMei",
  "ProtocolName": "ge_func_3x3x4_164",
  "PulseSequenceDetails": "%SiemensSeq%\\ep2d_bold",
  "ReceiveCoilName": "HeadMatrix",
  "ReconMatrixPE": 64,
  "RepetitionTime": 2,
  "SAR": 0.164636,
  "ScanOptions": "FS",
  "ScanningSequence": "EP",
  "SequenceName": "*epfid2d1_64",
  "SequenceVariant": "SK",
  "SeriesDescription": "ge_func_3x3x4_164",
  "SeriesNumber": 2,
  "ShimSetting": [-4473, -19428, -9786, 879, -84, -322, -243, -37],
  "SliceThickness": 4,
  "SliceTiming": [0, 1.0325, 0.06, 1.095, 0.12, 1.155, 0.1825, 1.215, 0.2425, 1.2775, 0.3025, 1.3375, 0.365, 1.3975, 0.425, 1.46, 0.485, 1.52, 0.5475, 1.58, 0.6075, 1.6425, 0.6675, 1.7025, 0.73, 1.7625, 0.79, 1.825, 0.85, 1.885, 0.9125, 1.945, 0.9725],
  "SoftwareVersions": "syngo MR B17",
  "SpacingBetweenSlices": 4.6,
  "StationName": "MRC35193",
  "TaskName": "CognitiveControl",
  "TotalReadoutTime": 0.0289803,
  "TxRefAmp": 345.35,
  "dcmmeta_affine": [
    [-3.124314546585083, 3.124999945161469e-16, 0.09633512794971466, 99.78610229492188],
    [3.124999945161469e-16, 3.125, -9.633513331456909e-18, -92.15210723876953],
    [0.06544505804777145, 0.0, 4.598991394042969, -67.58171081542969],
    [0.0, 0.0, 0.0, 1.0]
],
  "dcmmeta_reorient_transform": [
    [0.0, -1.0, 0.0, 63.0],
    [1.0, 0.0, 0.0, 0.0],
    [0.0, 0.0, 1.0, 0.0],
    [0.0, 0.0, 0.0, 1.0]
],
  "dcmmeta_shape": [64, 64, 33, 164],
  "dcmmeta_slice_dim": 2,
  "dcmmeta_version": 0.6,
  "global": {
    "const": {
      "AcquisitionMatrix": [64, 0, 0, 64],
      "AngioFlag": "N",
      "BitsAllocated": 16,
      "BitsStored": 12,
      "Columns": 384,
      "EchoNumbers": 1,
      "EchoTime": 30.0,
      "EchoTrainLength": 1,
      "FlipAngle": 90.0,
      "HighBit": 11,
      "ImageOrientationPatient": [0.9997806834792, -1e-16, 0.02094241967531, 1e-16, 1.0, 0.0],
      "ImagePositionPatient": [-599.67644558042, -604.72289133072, -78.052924339365],
      "ImageType": [
        "ORIGINAL",
        "PRIMARY",
        "M",
        "ND",
        "MOSAIC"
],
      "ImagedNucleus": "1H",
      "ImagingFrequency": 123.25395,
      "InPlanePhaseEncodingDirection": "COL",
      "MRAcquisitionType": "2D",
      "MagneticFieldStrength": 3.0,
      "Manufacturer": "SIEMENS",
      "ManufacturerModelName": "TrioTim",
      "Modality": "MR",
      "NumberOfAverages": 1.0,
      "NumberOfPhaseEncodingSteps": 64,
      "PercentPhaseFieldOfView": 100.0,
      "PercentSampling": 100.0,
      "PerformedProcedureStepStartTime": "151450.656000",
      "PhotometricInterpretation": "MONOCHROME2",
      "PixelBandwidth": 2520.0,
      "PixelRepresentation": 0,
      "PixelSpacing": [3.125, 3.125],
      "ProtocolName": "ge_func_3x3x4_164",
      "RepetitionTime": 2000.0,
      "Rows": 384,
      "SAR": 0.16463570553443,
      "SamplesPerPixel": 1,
      "ScanOptions": "FS",
      "ScanningSequence": "EP",
      "SequenceName": "*epfid2d1_64",
      "SequenceVariant": "SK",
      "SeriesDescription": "ge_func_3x3x4_164",
      "SeriesNumber": 2,
      "SeriesTime": "151725.921000",
      "SliceLocation": -65.477130250818,
      "SliceThickness": 4.0,
      "SmallestImagePixelValue": 0,
      "SoftwareVersions": "syngo MR B17",
      "SpacingBetweenSlices": 4.600000011642,
      "SpecificCharacterSet": "ISO_IR 100",
      "StudyID": "1",
      "StudyTime": "151450.578000",
      "TransmitCoilName": "Body",
      "VariableFlipAngleFlag": "N",
      "WindowCenterWidthExplanation": "Algo1",
      "dBdt": 0.0},
    "slices": {}
  },
  "time": {
    "samples": {
      "AcquisitionNumber": [1, 2, 3, 4, 5, 6, 7, 8, 9, 10, 11, 12, 13, 14, 15, 16, 17, 18, 19, 20, 21, 22, 23, 24, 25, 26, 27, 28, 29, 30, 31, 32, 33, 34, 35, 36, 37, 38, 39, 40, 41, 42, 43, 44, 45, 46, 47, 48, 49, 50, 51, 52, 53, 54, 55, 56, 57, 58, 59, 60, 61, 62, 63, 64, 65, 66, 67, 68, 69, 70, 71, 72, 73, 74, 75, 76, 77, 78, 79, 80, 81, 82, 83, 84, 85, 86, 87, 88, 89, 90, 91, 92, 93, 94, 95, 96, 97, 98, 99, 100, 101, 102, 103, 104, 105, 106, 107, 108, 109, 110, 111, 112, 113, 114, 115, 116, 117, 118, 119, 120, 121, 122, 123, 124, 125, 126, 127, 128, 129, 130, 131, 132, 133, 134, 135, 136, 137, 138, 139, 140, 141, 142, 143, 144, 145, 146, 147, 148, 149, 150, 151, 152, 153, 154, 155, 156, 157, 158, 159, 160, 161, 162, 163, 164],
      "AcquisitionTime": ["151719.325000", "151721.332500", "151723.340000", "151725.347500", "151727.357500", "151729.365000", "151731.372500", "151733.380000", "151735.390000", "151737.397500", "151739.405000", "151741.412500", "151743.420000", "151745.430000", "151747.437500", "151749.445000", "151751.452500", "151753.460000", "151755.470000", "151757.477500", "151759.485000", "151801.492500", "151803.500000", "151805.510000", "151807.517500", "151809.525000", "151811.532500", "151813.542500", "151815.550000", "151817.557500", "151819.565000", "151821.572500", "151823.582500", "151825.590000", "151827.597500", "151829.605000", "151831.612500", "151833.622500", "151835.630000", "151837.637500", "151839.645000", "151841.655000", "151843.662500", "151845.670000", "151847.677500", "151849.685000", "151851.695000", "151853.702500", "151855.710000", "151857.717500", "151859.725000", "151901.735000", "151903.742500", "151905.750000", "151907.757500", "151909.767500", "151911.775000", "151913.782500", "151915.790000", "151917.797500", "151919.807500", "151921.815000", "151923.822500", "151925.830000", "151927.837500", "151929.847500", "151931.855000", "151933.862500", "151935.870000", "151937.877500", "151939.887500", "151941.895000", "151943.902500", "151945.910000", "151947.920000", "151949.927500", "151951.935000", "151953.942500", "151955.950000", "151957.960000", "151959.967500", "152001.975000", "152003.982500", "152005.990000", "152008.000000", "152010.007500", "152012.015000", "152014.022500", "152016.032500", "152018.040000", "152020.047500", "152022.055000", "152024.062500", "152026.072500", "152028.080000", "152030.087500", "152032.095000", "152034.102500", "152036.112500", "152038.120000", "152040.127500", "152042.135000", "152044.145000", "152046.152500", "152048.160000", "152050.167500", "152052.175000", "152054.185000", "152056.192500", "152058.200000", "152100.207500", "152102.215000", "152104.225000", "152106.232500", "152108.240000", "152110.247500", "152112.255000", "152114.265000", "152116.272500", "152118.280000", "152120.287500", "152122.297500", "152124.305000", "152126.312500", "152128.320000", "152130.327500", "152132.337500", "152134.345000", "152136.352500", "152138.360000", "152140.367500", "152142.377500", "152144.385000", "152146.392500", "152148.400000", "152150.410000", "152152.417500", "152154.425000", "152156.432500", "152158.440000", "152200.450000", "152202.457500", "152204.465000", "152206.472500", "152208.480000", "152210.490000", "152212.497500", "152214.505000", "152216.512500", "152218.522500", "152220.530000", "152222.537500", "152224.545000", "152226.552500", "152228.562500", "152230.570000", "152232.577500", "152234.585000", "152236.592500", "152238.602500", "152240.610000", "152242.617500", "152244.625000", "152246.632500"],
      "ContentTime": ["151725.921000", "151725.937000", "151805.921000", "151805.921000", "151805.921000", "151805.921000", "151805.921000", "151805.937000", "151805.937000", "151805.937000", "151805.937000", "151805.937000", "151805.937000", "151805.937000", "151805.937000", "151805.953000", "151805.953000", "151805.953000", "151805.953000", "151805.953000", "151805.953000", "151805.953000", "151845.921000", "151845.921000", "151845.921000", "151845.937000", "151845.937000", "151845.937000", "151845.937000", "151845.937000", "151845.937000", "151845.953000", "151845.953000", "151845.953000", "151845.953000", "151845.953000", "151845.953000", "151845.953000", "151845.953000", "151845.968000", "151845.968000", "151845.968000", "151925.921000", "151925.921000", "151925.921000", "151925.921000", "151925.937000", "151925.937000", "151925.937000", "151925.937000", "151925.937000", "151925.953000", "151925.953000", "151925.953000", "151925.953000", "151925.953000", "151925.953000", "151925.953000", "151925.953000", "151925.968000", "151925.968000", "151925.968000", "152005.921000", "152005.921000", "152005.921000", "152005.921000", "152005.937000", "152005.937000", "152005.937000", "152005.937000", "152005.937000", "152005.953000", "152005.953000", "152005.953000", "152005.953000", "152005.968000", "152005.968000", "152005.968000", "152005.968000", "152005.968000", "152005.968000", "152005.968000", "152045.921000", "152045.921000", "152045.921000", "152045.937000", "152045.937000", "152045.937000", "152045.937000", "152045.937000", "152045.937000", "152045.953000", "152045.953000", "152045.953000", "152045.953000", "152045.953000", "152045.968000", "152045.968000", "152045.968000", "152045.968000", "152045.968000", "152045.968000", "152125.921000", "152125.921000", "152125.921000", "152125.921000", "152125.921000", "152125.937000", "152125.937000", "152125.937000", "152125.937000", "152125.953000", "152125.953000", "152125.953000", "152125.968000", "152125.968000", "152125.968000", "152125.968000", "152125.968000", "152125.968000", "152125.968000", "152125.968000", "152205.921000", "152205.921000", "152205.921000", "152205.937000", "152205.937000", "152205.937000", "152205.937000", "152205.937000", "152205.937000", "152205.937000", "152205.937000", "152205.953000", "152205.953000", "152205.953000", "152205.953000", "152205.953000", "152205.953000", "152205.953000", "152205.953000", "152205.968000", "152245.921000", "152245.921000", "152245.921000", "152245.921000", "152245.921000", "152245.937000", "152245.937000", "152245.937000", "152245.937000", "152245.953000", "152245.953000", "152245.953000", "152245.953000", "152245.953000", "152245.953000", "152245.953000", "152245.953000", "152245.968000", "152245.968000", "152245.968000", "152248.484000", "152248.484000"],
      "InstanceCreationTime": ["151725.921000", "151725.937000", "151805.921000", "151805.921000", "151805.921000", "151805.921000", "151805.921000", "151805.937000", "151805.937000", "151805.937000", "151805.937000", "151805.937000", "151805.937000", "151805.937000", "151805.937000", "151805.953000", "151805.953000", "151805.953000", "151805.953000", "151805.953000", "151805.953000", "151805.953000", "151845.921000", "151845.921000", "151845.921000", "151845.937000", "151845.937000", "151845.937000", "151845.937000", "151845.937000", "151845.937000", "151845.953000", "151845.953000", "151845.953000", "151845.953000", "151845.953000", "151845.953000", "151845.953000", "151845.953000", "151845.968000", "151845.968000", "151845.968000", "151925.921000", "151925.921000", "151925.921000", "151925.921000", "151925.937000", "151925.937000", "151925.937000", "151925.937000", "151925.937000", "151925.953000", "151925.953000", "151925.953000", "151925.953000", "151925.953000", "151925.953000", "151925.953000", "151925.953000", "151925.968000", "151925.968000", "151925.968000", "152005.921000", "152005.921000", "152005.921000", "152005.921000", "152005.937000", "152005.937000", "152005.937000", "152005.937000", "152005.937000", "152005.953000", "152005.953000", "152005.953000", "152005.953000", "152005.968000", "152005.968000", "152005.968000", "152005.968000", "152005.968000", "152005.968000", "152005.968000", "152045.921000", "152045.921000", "152045.921000", "152045.937000", "152045.937000", "152045.937000", "152045.937000", "152045.937000", "152045.937000", "152045.953000", "152045.953000", "152045.953000", "152045.953000", "152045.953000", "152045.968000", "152045.968000", "152045.968000", "152045.968000", "152045.968000", "152045.968000", "152125.921000", "152125.921000", "152125.921000", "152125.921000", "152125.921000", "152125.937000", "152125.937000", "152125.937000", "152125.937000", "152125.953000", "152125.953000", "152125.953000", "152125.968000", "152125.968000", "152125.968000", "152125.968000", "152125.968000", "152125.968000", "152125.968000", "152125.968000", "152205.921000", "152205.921000", "152205.921000", "152205.937000", "152205.937000", "152205.937000", "152205.937000", "152205.937000", "152205.937000", "152205.937000", "152205.937000", "152205.953000", "152205.953000", "152205.953000", "152205.953000", "152205.953000", "152205.953000", "152205.953000", "152205.953000", "152205.968000", "152245.921000", "152245.921000", "152245.921000", "152245.921000", "152245.921000", "152245.937000", "152245.937000", "152245.937000", "152245.937000", "152245.953000", "152245.953000", "152245.953000", "152245.953000", "152245.953000", "152245.953000", "152245.953000", "152245.953000", "152245.968000", "152245.968000", "152245.968000", "152248.484000", "152248.484000"],
      "InstanceNumber": [1, 2, 3, 4, 5, 6, 7, 8, 9, 10, 11, 12, 13, 14, 15, 16, 17, 18, 19, 20, 21, 22, 23, 24, 25, 26, 27, 28, 29, 30, 31, 32, 33, 34, 35, 36, 37, 38, 39, 40, 41, 42, 43, 44, 45, 46, 47, 48, 49, 50, 51, 52, 53, 54, 55, 56, 57, 58, 59, 60, 61, 62, 63, 64, 65, 66, 67, 68, 69, 70, 71, 72, 73, 74, 75, 76, 77, 78, 79, 80, 81, 82, 83, 84, 85, 86, 87, 88, 89, 90, 91, 92, 93, 94, 95, 96, 97, 98, 99, 100, 101, 102, 103, 104, 105, 106, 107, 108, 109, 110, 111, 112, 113, 114, 115, 116, 117, 118, 119, 120, 121, 122, 123, 124, 125, 126, 127, 128, 129, 130, 131, 132, 133, 134, 135, 136, 137, 138, 139, 140, 141, 142, 143, 144, 145, 146, 147, 148, 149, 150, 151, 152, 153, 154, 155, 156, 157, 158, 159, 160, 161, 162, 163, 164],
      "LargestImagePixelValue": [1866, 2377, 1978, 2195, 1816, 2273, 1946, 2278, 1925, 2126, 2050, 2235, 1921, 2031, 1884, 1791, 2035, 2164, 1914, 2056, 1825, 2042, 2042, 2045, 2134, 1848, 2239, 1760, 1973, 2001, 2049, 2149, 1944, 2066, 1934, 1949, 2081, 2301, 1897, 1857, 2212, 1959, 2132, 2106, 2136, 2236, 2170, 2132, 2006, 2170, 1838, 2163, 1972, 2006, 2435, 1963, 2142, 2035, 2233, 2235, 1986, 2103, 1809, 2268, 2057, 1977, 2363, 1829, 2040, 2431, 1911, 2230, 2122, 1801, 2153, 2248, 1957, 2212, 1990, 2033, 2294, 2347, 1870, 2057, 2366, 2007, 2206, 2637, 2024, 2262, 2019, 2043, 2378, 2016, 2039, 2295, 2172, 2305, 2275, 2220, 2375, 2048, 2360, 2120, 2354, 2651, 2294, 2050, 2234, 1967, 2423, 2624, 1901, 2349, 2416, 2480, 2220, 2242, 2501, 2205, 2413, 2409, 2364, 2424, 2240, 2389, 2463, 2194, 2342, 2070, 2652, 2428, 2161, 2182, 2511, 2655, 2023, 2421, 2439, 2040, 2469, 2542, 1863, 2348, 2420, 2750, 2159, 1854, 2469, 1854, 2304, 2603, 2563, 2245, 2206, 2462, 2345, 1977, 2442, 2443, 1837, 2438, 2566, 2029],
      "WindowCenter": [735.0, 735.0, 732.0, 732.0, 730.0, 731.0, 730.0, 731.0, 729.0, 730.0, 729.0, 731.0, 729.0, 730.0, 730.0, 730.0, 731.0, 730.0, 729.0, 730.0, 729.0, 730.0, 730.0, 731.0, 731.0, 729.0, 732.0, 730.0, 732.0, 731.0, 731.0, 731.0, 730.0, 731.0, 730.0, 731.0, 731.0, 731.0, 729.0, 729.0, 732.0, 731.0, 732.0, 731.0, 732.0, 732.0, 731.0, 731.0, 730.0, 731.0, 729.0, 731.0, 730.0, 730.0, 732.0, 730.0, 731.0, 730.0, 731.0, 730.0, 729.0, 731.0, 729.0, 732.0, 731.0, 730.0, 732.0, 730.0, 731.0, 733.0, 729.0, 731.0, 731.0, 730.0, 732.0, 732.0, 730.0, 733.0, 732.0, 731.0, 731.0, 731.0, 729.0, 731.0, 733.0, 731.0, 732.0, 733.0, 730.0, 732.0, 731.0, 731.0, 733.0, 731.0, 731.0, 733.0, 732.0, 732.0, 732.0, 732.0, 733.0, 731.0, 735.0, 734.0, 734.0, 734.0, 733.0, 733.0, 735.0, 733.0, 734.0, 734.0, 731.0, 733.0, 733.0, 733.0, 732.0, 733.0, 734.0, 733.0, 734.0, 734.0, 734.0, 734.0, 733.0, 733.0, 734.0, 733.0, 733.0, 732.0, 733.0, 733.0, 733.0, 732.0, 733.0, 733.0, 731.0, 734.0, 734.0, 731.0, 733.0, 734.0, 732.0, 734.0, 733.0, 734.0, 733.0, 731.0, 734.0, 733.0, 734.0, 734.0, 733.0, 733.0, 733.0, 734.0, 733.0, 731.0, 733.0, 734.0, 732.0, 735.0, 734.0, 732.0],
      "WindowWidth": [1582.0, 1583.0, 1574.0, 1575.0, 1568.0, 1573.0, 1568.0, 1573.0, 1567.0, 1569.0, 1567.0, 1571.0, 1566.0, 1570.0, 1570.0, 1569.0, 1571.0, 1570.0, 1567.0, 1570.0, 1566.0, 1570.0, 1570.0, 1572.0, 1573.0, 1567.0, 1575.0, 1570.0, 1574.0, 1573.0, 1572.0, 1573.0, 1570.0, 1571.0, 1570.0, 1572.0, 1571.0, 1573.0, 1567.0, 1568.0, 1576.0, 1572.0, 1576.0, 1573.0, 1574.0, 1574.0, 1573.0, 1571.0, 1570.0, 1573.0, 1567.0, 1573.0, 1570.0, 1570.0, 1576.0, 1568.0, 1573.0, 1570.0, 1572.0, 1570.0, 1568.0, 1573.0, 1567.0, 1574.0, 1571.0, 1570.0, 1576.0, 1569.0, 1572.0, 1577.0, 1566.0, 1571.0, 1572.0, 1570.0, 1575.0, 1575.0, 1571.0, 1579.0, 1573.0, 1572.0, 1574.0, 1574.0, 1567.0, 1571.0, 1577.0, 1572.0, 1574.0, 1578.0, 1570.0, 1576.0, 1572.0, 1572.0, 1576.0, 1573.0, 1573.0, 1576.0, 1575.0, 1576.0, 1574.0, 1573.0, 1577.0, 1573.0, 1582.0, 1579.0, 1579.0, 1579.0, 1577.0, 1578.0, 1583.0, 1576.0, 1579.0, 1581.0, 1572.0, 1578.0, 1577.0, 1578.0, 1574.0, 1576.0, 1581.0, 1576.0, 1579.0, 1579.0, 1580.0, 1580.0, 1577.0, 1578.0, 1579.0, 1577.0, 1578.0, 1573.0, 1579.0, 1578.0, 1576.0, 1574.0, 1578.0, 1578.0, 1573.0, 1581.0, 1580.0, 1572.0, 1576.0, 1579.0, 1575.0, 1581.0, 1576.0, 1580.0, 1577.0, 1573.0, 1582.0, 1576.0, 1580.0, 1580.0, 1578.0, 1576.0, 1577.0, 1579.0, 1576.0, 1572.0, 1578.0, 1580.0, 1573.0, 1582.0, 1581.0, 1574.0]
    },
    "slices": {}
  }
}