{
  "AcquisitionMatrixPE": 64,
  "AcquisitionNumber": 1,
  "AcquisitionTime": "12:09:7.875000",
  "BandwidthPerPixelPhaseEncode": 33.967,
  "BaseResolution": 64,
  "CoilCombinationMethod": "Sum of Squares",
  "CoilString": "C:HEA;HEP",
  "ConversionSoftware": "dcm2niix",
  "ConversionSoftwareVersion": "v1.0.20220720",
  "DerivedVendorReportedEchoSpacing": 0.000460005,
  "DeviceSerialNumber": "35193",
  "DwellTime": 3.1e-06,
  "EchoTime": 0.03,
  "EffectiveEchoSpacing": 0.000460005,
  "FlipAngle": 90,
  "HeudiconvVersion": "1.1.6",
  "ImageOrientationPatientDICOM": [0.99824, 0, 0.0593064, 0, 1, 0],
  "ImageOrientationText": "Tra>Sag(3.4)",
  "ImageType": [
    "ORIGINAL",
    "PRIMARY",
    "M",
    "ND",
    "MOSAIC"
],
  "ImagingFrequency": 123.254,
  "InPlanePhaseEncodingDirectionDICOM": "COL",
  "InstitutionAddress": "Xinjiekouwai Street No 19,Beijing,Haidian District,CN,100875",
  "InstitutionName": "BNU MRI Center",
  "InstitutionalDepartmentName": "Department",
  "MRAcquisitionType": "2D",
  "MagneticFieldStrength": 3,
  "Manufacturer": "Siemens",
  "ManufacturersModelName": "TrioTim",
  "MatrixCoilMode": "SENSE",
  "Modality": "MR",
  "NonlinearGradientCorrection": false,
  "PartialFourier": 1,
  "PatientPosition": "HFS",
  "PercentPhaseFOV": 100,
  "PercentSampling": 100,
  "PhaseEncodingDirection": "j-",
  "PhaseEncodingSteps": 64,
  "PhaseResolution": 1,
  "PixelBandwidth": 2520,
  "ProcedureStepDescription": "BNU_cst_2015^Guo.TaoMei",
  "ProtocolName": "ge_func_3x3x4_164",
  "PulseSequenceDetails": "%SiemensSeq%\\ep2d_bold",
  "ReceiveCoilName": "HeadMatrix",
  "ReconMatrixPE": 64,
  "RepetitionTime": 2,
  "SAR": 0.187542,
  "ScanOptions": "FS",
  "ScanningSequence": "EP",
  "SequenceName": "*epfid2d1_64",
  "SequenceVariant": "SK",
  "SeriesDescription": "ge_func_3x3x4_164",
  "SeriesNumber": 4,
  "ShimSetting": [-4488, -19439, -9808, 1056, -95, -372, -43, -57],
  "SliceThickness": 4,
  "SliceTiming": [0, 1.035, 0.06, 1.095, 0.1225, 1.155, 0.1825, 1.2175, 0.2425, 1.2775, 0.305, 1.3375, 0.365, 1.4, 0.425, 1.46, 0.4875, 1.52, 0.5475, 1.5825, 0.6075, 1.6425, 0.67, 1.7025, 0.73, 1.765, 0.79, 1.825, 0.8525, 1.885, 0.9125, 1.9475, 0.9725],
  "SoftwareVersions": "syngo MR B17",
  "SpacingBetweenSlices": 4.6,
  "StationName": "MRC35193",
  "TaskName": "CognitiveControl",
  "TotalReadoutTime": 0.0289803,
  "TxRefAmp": 358.462,
  "dcmmeta_affine": [
    [-3.119499444961548, 0.0, 0.27280932664871216, 98.83252716064453],
    [0.0, 3.125, 0.0, -88.10391235351562],
    [0.18533241748809814, 0.0, 4.591903209686279, -64.5577163696289],
    [0.0, 0.0, 0.0, 1.0]
],
  "dcmmeta_reorient_transform": [
    [0.0, -1.0, 0.0, 63.0],
    [1.0, 0.0, 0.0, 0.0],
    [0.0, 0.0, 1.0, 0.0],
    [0.0, 0.0, 0.0, 1.0]
],
  "dcmmeta_shape": [64, 64, 33, 164],
  "dcmmeta_slice_dim": 2,
  "dcmmeta_version": 0.6,
  "global": {
    "const": {
      "AcquisitionMatrix": [64, 0, 0, 64],
      "AngioFlag": "N",
      "BitsAllocated": 16,
      "BitsStored": 12,
      "Columns": 384,
      "EchoNumbers": 1,
      "EchoTime": 30.0,
      "EchoTrainLength": 1,
      "FlipAngle": 90.0,
      "HighBit": 11,
      "ImageOrientationPatient": [0.99823982793962, 0.0, 0.05930637330917, 0.0, 1.0, 0.0],
      "ImagePositionPatient": [-597.95244162604, -608.77108478546, -94.210902995509],
      "ImageType": [
        "ORIGINAL",
        "PRIMARY",
        "M",
        "ND",
        "MOSAIC"
],
      "ImagedNucleus": "1H",
      "ImagingFrequency": 123.253673,
      "InPlanePhaseEncodingDirection": "COL",
      "MRAcquisitionType": "2D",
      "MagneticFieldStrength": 3.0,
      "Manufacturer": "SIEMENS",
      "ManufacturerModelName": "TrioTim",
      "Modality": "MR",
      "NumberOfAverages": 1.0,
      "NumberOfPhaseEncodingSteps": 64,
      "PercentPhaseFieldOfView": 100.0,
      "PercentSampling": 100.0,
      "PerformedProcedureStepStartTime": "115405.406000",
      "PhotometricInterpretation": "MONOCHROME2",
      "PixelBandwidth": 2520.0,
      "PixelRepresentation": 0,
      "PixelSpacing": [3.125, 3.125],
      "ProtocolName": "ge_func_3x3x4_164",
      "RepetitionTime": 2000.0,
      "Rows": 384,
      "SAR": 0.1875417770356,
      "SamplesPerPixel": 1,
      "ScanOptions": "FS",
      "ScanningSequence": "EP",
      "SequenceName": "*epfid2d1_64",
      "SequenceVariant": "SK",
      "SeriesDescription": "ge_func_3x3x4_164",
      "SeriesNumber": 4,
      "SeriesTime": "120930.468000",
      "SliceLocation": -58.582684872072,
      "SliceThickness": 4.0,
      "SmallestImagePixelValue": 0,
      "SoftwareVersions": "syngo MR B17",
      "SpacingBetweenSlices": 4.6000001199472,
      "SpecificCharacterSet": "ISO_IR 100",
      "StudyID": "1",
      "StudyTime": "115405.328000",
      "TransmitCoilName": "Body",
      "VariableFlipAngleFlag": "N",
      "WindowCenterWidthExplanation": "Algo1",
      "dBdt": 0.0},
    "slices": {}
  },
  "time": {
    "samples": {
      "AcquisitionNumber": [1, 2, 3, 4, 5, 6, 7, 8, 9, 10, 11, 12, 13, 14, 15, 16, 17, 18, 19, 20, 21, 22, 23, 24, 25, 26, 27, 28, 29, 30, 31, 32, 33, 34, 35, 36, 37, 38, 39, 40, 41, 42, 43, 44, 45, 46, 47, 48, 49, 50, 51, 52, 53, 54, 55, 56, 57, 58, 59, 60, 61, 62, 63, 64, 65, 66, 67, 68, 69, 70, 71, 72, 73, 74, 75, 76, 77, 78, 79, 80, 81, 82, 83, 84, 85, 86, 87, 88, 89, 90, 91, 92, 93, 94, 95, 96, 97, 98, 99, 100, 101, 102, 103, 104, 105, 106, 107, 108, 109, 110, 111, 112, 113, 114, 115, 116, 117, 118, 119, 120, 121, 122, 123, 124, 125, 126, 127, 128, 129, 130, 131, 132, 133, 134, 135, 136, 137, 138, 139, 140, 141, 142, 143, 144, 145, 146, 147, 148, 149, 150, 151, 152, 153, 154, 155, 156, 157, 158, 159, 160, 161, 162, 163, 164],
      "AcquisitionTime": ["120907.875000", "120909.882500", "120911.890000", "120913.900000", "120915.907500", "120917.915000", "120919.922500", "120921.930000", "120923.940000", "120925.947500", "120927.955000", "120929.962500", "120931.972500", "120933.980000", "120935.987500", "120937.995000", "120940.002500", "120942.012500", "120944.020000", "120946.027500", "120948.035000", "120950.042500", "120952.052500", "120954.060000", "120956.067500", "120958.075000", "121000.085000", "121002.092500", "121004.100000", "121006.107500", "121008.115000", "121010.125000", "121012.132500", "121014.140000", "121016.147500", "121018.155000", "121020.165000", "121022.172500", "121024.180000", "121026.187500", "121028.195000", "121030.205000", "121032.212500", "121034.220000", "121036.227500", "121038.237500", "121040.245000", "121042.252500", "121044.260000", "121046.267500", "121048.277500", "121050.285000", "121052.292500", "121054.300000", "121056.307500", "121058.317500", "121100.325000", "121102.332500", "121104.340000", "121106.350000", "121108.357500", "121110.365000", "121112.372500", "121114.380000", "121116.390000", "121118.397500", "121120.405000", "121122.412500", "121124.420000", "121126.430000", "121128.437500", "121130.445000", "121132.452500", "121134.462500", "121136.470000", "121138.477500", "121140.485000", "121142.492500", "121144.502500", "121146.510000", "121148.517500", "121150.525000", "121152.532500", "121154.542500", "121156.550000", "121158.557500", "121200.565000", "121202.572500", "121204.582500", "121206.590000", "121208.597500", "121210.605000", "121212.615000", "121214.622500", "121216.630000", "121218.637500", "121220.645000", "121222.655000", "121224.662500", "121226.670000", "121228.677500", "121230.685000", "121232.695000", "121234.702500", "121236.710000", "121238.717500", "121240.727500", "121242.735000", "121244.742500", "121246.750000", "121248.757500", "121250.767500", "121252.775000", "121254.782500", "121256.790000", "121258.797500", "121300.807500", "121302.815000", "121304.822500", "121306.830000", "121308.840000", "121310.847500", "121312.855000", "121314.862500", "121316.870000", "121318.880000", "121320.887500", "121322.895000", "121324.902500", "121326.910000", "121328.920000", "121330.927500", "121332.935000", "121334.942500", "121336.950000", "121338.960000", "121340.967500", "121342.975000", "121344.982500", "121346.992500", "121349.000000", "121351.007500", "121353.015000", "121355.022500", "121357.032500", "121359.040000", "121401.047500", "121403.055000", "121405.062500", "121407.072500", "121409.080000", "121411.087500", "121413.095000", "121415.105000", "121417.112500", "121419.120000", "121421.127500", "121423.135000", "121425.145000", "121427.152500", "121429.160000", "121431.167500", "121433.175000", "121435.185000"],
      "ContentTime": ["120930.468000", "120930.468000", "120930.468000", "120930.468000", "120930.468000", "120930.484000", "120930.484000", "120930.484000", "120930.484000", "120930.484000", "121010.453000", "121010.468000", "121010.468000", "121010.468000", "121010.468000", "121010.484000", "121010.484000", "121010.484000", "121010.484000", "121010.484000", "121010.484000", "121010.484000", "121010.484000", "121010.500000", "121010.500000", "121010.500000", "121010.500000", "121010.500000", "121010.500000", "121010.500000", "121050.453000", "121050.468000", "121050.468000", "121050.468000", "121050.468000", "121050.468000", "121050.468000", "121050.484000", "121050.484000", "121050.484000", "121050.484000", "121050.484000", "121050.484000", "121050.484000", "121050.484000", "121050.500000", "121050.500000", "121050.500000", "121050.500000", "121050.500000", "121130.453000", "121130.468000", "121130.468000", "121130.468000", "121130.468000", "121130.468000", "121130.484000", "121130.484000", "121130.484000", "121130.484000", "121130.484000", "121130.484000", "121130.484000", "121130.484000", "121130.500000", "121130.500000", "121130.500000", "121130.500000", "121130.500000", "121130.500000", "121210.453000", "121210.468000", "121210.468000", "121210.468000", "121210.468000", "121210.468000", "121210.468000", "121210.468000", "121210.484000", "121210.484000", "121210.500000", "121210.500000", "121210.500000", "121210.515000", "121210.515000", "121210.515000", "121210.515000", "121210.531000", "121210.531000", "121210.531000", "121250.453000", "121250.468000", "121250.468000", "121250.468000", "121250.468000", "121250.468000", "121250.468000", "121250.468000", "121250.468000", "121250.484000", "121250.484000", "121250.484000", "121250.484000", "121250.484000", "121250.484000", "121250.484000", "121250.484000", "121250.500000", "121250.500000", "121250.500000", "121330.453000", "121330.468000", "121330.484000", "121330.484000", "121330.484000", "121330.484000", "121330.484000", "121330.484000", "121330.484000", "121330.484000", "121330.500000", "121330.500000", "121330.500000", "121330.500000", "121330.500000", "121330.500000", "121330.500000", "121330.500000", "121330.515000", "121330.515000", "121410.453000", "121410.468000", "121410.468000", "121410.468000", "121410.468000", "121410.468000", "121410.468000", "121410.468000", "121410.468000", "121410.484000", "121410.484000", "121410.484000", "121410.484000", "121410.484000", "121410.484000", "121410.484000", "121410.484000", "121410.500000", "121410.500000", "121410.500000", "121436.531000", "121436.531000", "121436.531000", "121436.546000", "121436.546000", "121436.546000", "121436.546000", "121436.546000", "121436.546000", "121436.546000", "121436.546000", "121436.562000", "121436.562000", "121436.562000"],
      "InstanceCreationTime": ["120930.468000", "120930.468000", "120930.468000", "120930.468000", "120930.468000", "120930.484000", "120930.484000", "120930.484000", "120930.484000", "120930.484000", "121010.453000", "121010.468000", "121010.468000", "121010.468000", "121010.468000", "121010.484000", "121010.484000", "121010.484000", "121010.484000", "121010.484000", "121010.484000", "121010.484000", "121010.484000", "121010.500000", "121010.500000", "121010.500000", "121010.500000", "121010.500000", "121010.500000", "121010.500000", "121050.453000", "121050.468000", "121050.468000", "121050.468000", "121050.468000", "121050.468000", "121050.468000", "121050.484000", "121050.484000", "121050.484000", "121050.484000", "121050.484000", "121050.484000", "121050.484000", "121050.484000", "121050.500000", "121050.500000", "121050.500000", "121050.500000", "121050.500000", "121130.453000", "121130.468000", "121130.468000", "121130.468000", "121130.468000", "121130.468000", "121130.484000", "121130.484000", "121130.484000", "121130.484000", "121130.484000", "121130.484000", "121130.484000", "121130.484000", "121130.500000", "121130.500000", "121130.500000", "121130.500000", "121130.500000", "121130.500000", "121210.453000", "121210.468000", "121210.468000", "121210.468000", "121210.468000", "121210.468000", "121210.468000", "121210.468000", "121210.484000", "121210.484000", "121210.500000", "121210.500000", "121210.500000", "121210.515000", "121210.515000", "121210.515000", "121210.515000", "121210.531000", "121210.531000", "121210.531000", "121250.453000", "121250.468000", "121250.468000", "121250.468000", "121250.468000", "121250.468000", "121250.468000", "121250.468000", "121250.468000", "121250.484000", "121250.484000", "121250.484000", "121250.484000", "121250.484000", "121250.484000", "121250.484000", "121250.484000", "121250.500000", "121250.500000", "121250.500000", "121330.453000", "121330.468000", "121330.484000", "121330.484000", "121330.484000", "121330.484000", "121330.484000", "121330.484000", "121330.484000", "121330.484000", "121330.500000", "121330.500000", "121330.500000", "121330.500000", "121330.500000", "121330.500000", "121330.500000", "121330.500000", "121330.515000", "121330.515000", "121410.453000", "121410.468000", "121410.468000", "121410.468000", "121410.468000", "121410.468000", "121410.468000", "121410.468000", "121410.468000", "121410.484000", "121410.484000", "121410.484000", "121410.484000", "121410.484000", "121410.484000", "121410.484000", "121410.484000", "121410.500000", "121410.500000", "121410.500000", "121436.531000", "121436.531000", "121436.531000", "121436.546000", "121436.546000", "121436.546000", "121436.546000", "121436.546000", "121436.546000", "121436.546000", "121436.546000", "121436.562000", "121436.562000", "121436.562000"],
      "InstanceNumber": [1, 2, 3, 4, 5, 6, 7, 8, 9, 10, 11, 12, 13, 14, 15, 16, 17, 18, 19, 20, 21, 22, 23, 24, 25, 26, 27, 28, 29, 30, 31, 32, 33, 34, 35, 36, 37, 38, 39, 40, 41, 42, 43, 44, 45, 46, 47, 48, 49, 50, 51, 52, 53, 54, 55, 56, 57, 58, 59, 60, 61, 62, 63, 64, 65, 66, 67, 68, 69, 70, 71, 72, 73, 74, 75, 76, 77, 78, 79, 80, 81, 82, 83, 84, 85, 86, 87, 88, 89, 90, 91, 92, 93, 94, 95, 96, 97, 98, 99, 100, 101, 102, 103, 104, 105, 106, 107, 108, 109, 110, 111, 112, 113, 114, 115, 116, 117, 118, 119, 120, 121, 122, 123, 124, 125, 126, 127, 128, 129, 130, 131, 132, 133, 134, 135, 136, 137, 138, 139, 140, 141, 142, 143, 144, 145, 146, 147, 148, 149, 150, 151, 152, 153, 154, 155, 156, 157, 158, 159, 160, 161, 162, 163, 164],
      "LargestImagePixelValue": [1862, 1788, 1794, 1777, 1779, 1773, 1773, 1788, 1785, 1779, 1779, 1769, 1769, 1780, 1754, 1763, 1771, 1763, 1775, 1774, 1772, 1787, 1758, 1787, 1760, 1777, 1781, 1784, 1756, 1770, 1763, 1770, 1765, 1780, 1775, 1783, 1764, 1765, 1765, 1778, 1767, 1792, 1777, 1768, 1760, 1790, 1777, 1785, 1784, 1779, 1778, 1791, 1783, 1782, 1768, 1791, 1781, 1791, 1772, 1794, 1794, 1781, 1831, 1793, 1795, 1794, 1806, 1812, 1795, 1799, 1800, 1793, 1797, 1798, 1776, 1793, 1796, 1806, 1790, 1793, 1809, 1813, 1785, 1798, 1818, 1796, 1820, 1801, 1805, 1799, 1789, 1796, 1811, 1787, 1803, 1791, 1809, 1797, 1811, 1797, 1809, 1797, 1789, 1780, 1785, 1775, 1797, 1790, 1827, 1775, 1802, 1796, 1794, 1799, 1801, 1801, 1800, 1794, 1799, 1806, 1799, 1795, 1814, 1787, 1793, 1795, 1788, 1811, 1809, 1807, 1793, 1780, 1786, 1783, 1797, 1796, 1805, 1797, 1784, 1792, 1794, 1792, 1798, 1867, 1816, 1803, 1789, 1815, 1814, 1797, 1815, 1799, 1807, 1810, 1796, 1794, 1796, 1793, 1779, 1782, 1787, 1797, 1796, 1810],
      "WindowCenter": [746.0, 743.0, 742.0, 742.0, 742.0, 742.0, 742.0, 741.0, 741.0, 740.0, 741.0, 741.0, 741.0, 743.0, 743.0, 743.0, 743.0, 742.0, 743.0, 743.0, 743.0, 743.0, 742.0, 743.0, 742.0, 742.0, 742.0, 743.0, 743.0, 742.0, 743.0, 743.0, 743.0, 743.0, 743.0, 743.0, 743.0, 742.0, 742.0, 741.0, 741.0, 742.0, 743.0, 743.0, 743.0, 742.0, 742.0, 743.0, 742.0, 742.0, 742.0, 743.0, 742.0, 742.0, 742.0, 743.0, 743.0, 743.0, 742.0, 742.0, 742.0, 742.0, 742.0, 742.0, 742.0, 742.0, 742.0, 742.0, 742.0, 742.0, 743.0, 742.0, 743.0, 743.0, 743.0, 742.0, 742.0, 742.0, 741.0, 742.0, 741.0, 742.0, 742.0, 742.0, 742.0, 742.0, 742.0, 742.0, 742.0, 742.0, 743.0, 742.0, 743.0, 743.0, 743.0, 743.0, 742.0, 743.0, 742.0, 743.0, 742.0, 742.0, 742.0, 743.0, 743.0, 743.0, 743.0, 741.0, 743.0, 742.0, 743.0, 742.0, 742.0, 742.0, 742.0, 743.0, 743.0, 743.0, 744.0, 743.0, 744.0, 743.0, 744.0, 743.0, 744.0, 743.0, 743.0, 743.0, 743.0, 743.0, 744.0, 744.0, 743.0, 742.0, 743.0, 742.0, 743.0, 743.0, 743.0, 744.0, 744.0, 744.0, 743.0, 743.0, 742.0, 741.0, 743.0, 742.0, 742.0, 742.0, 743.0, 743.0, 743.0, 743.0, 743.0, 743.0, 743.0, 744.0, 744.0, 744.0, 743.0, 742.0, 742.0, 742.0],
      "WindowWidth": [1620.0, 1612.0, 1608.0, 1608.0, 1607.0, 1607.0, 1608.0, 1605.0, 1605.0, 1604.0, 1605.0, 1607.0, 1606.0, 1610.0, 1611.0, 1610.0, 1611.0, 1609.0, 1610.0, 1610.0, 1611.0, 1611.0, 1609.0, 1611.0, 1607.0, 1609.0, 1609.0, 1610.0, 1610.0, 1609.0, 1610.0, 1611.0, 1611.0, 1609.0, 1610.0, 1612.0, 1609.0, 1608.0, 1607.0, 1606.0, 1606.0, 1607.0, 1610.0, 1610.0, 1609.0, 1607.0, 1609.0, 1611.0, 1608.0, 1609.0, 1608.0, 1610.0, 1607.0, 1608.0, 1609.0, 1609.0, 1610.0, 1609.0, 1609.0, 1609.0, 1609.0, 1607.0, 1606.0, 1607.0, 1606.0, 1607.0, 1607.0, 1607.0, 1608.0, 1609.0, 1609.0, 1607.0, 1610.0, 1610.0, 1610.0, 1608.0, 1607.0, 1607.0, 1605.0, 1606.0, 1606.0, 1607.0, 1607.0, 1608.0, 1606.0, 1607.0, 1607.0, 1607.0, 1607.0, 1608.0, 1609.0, 1609.0, 1611.0, 1612.0, 1610.0, 1610.0, 1608.0, 1609.0, 1608.0, 1610.0, 1608.0, 1607.0, 1608.0, 1609.0, 1610.0, 1610.0, 1610.0, 1606.0, 1610.0, 1608.0, 1609.0, 1608.0, 1607.0, 1608.0, 1609.0, 1610.0, 1609.0, 1610.0, 1612.0, 1612.0, 1612.0, 1610.0, 1612.0, 1611.0, 1612.0, 1609.0, 1609.0, 1609.0, 1609.0, 1610.0, 1613.0, 1612.0, 1609.0, 1608.0, 1609.0, 1609.0, 1609.0, 1609.0, 1609.0, 1612.0, 1612.0, 1614.0, 1611.0, 1611.0, 1608.0, 1606.0, 1609.0, 1608.0, 1609.0, 1608.0, 1610.0, 1610.0, 1609.0, 1610.0, 1610.0, 1609.0, 1610.0, 1612.0, 1612.0, 1613.0, 1610.0, 1608.0, 1607.0, 1606.0]
    },
    "slices": {}
  }
}