{
  "AcquisitionMatrixPE": 64,
  "AcquisitionNumber": 1,
  "AcquisitionTime": "11:56:9.992500",
  "BandwidthPerPixelPhaseEncode": 33.967,
  "BaseResolution": 64,
  "CoilCombinationMethod": "Sum of Squares",
  "CoilString": "C:HEA;HEP",
  "ConversionSoftware": "dcm2niix",
  "ConversionSoftwareVersion": "v1.0.20220720",
  "DerivedVendorReportedEchoSpacing": 0.000460005,
  "DeviceSerialNumber": "35193",
  "DwellTime": 3.1e-06,
  "EchoTime": 0.03,
  "EffectiveEchoSpacing": 0.000460005,
  "FlipAngle": 90,
  "HeudiconvVersion": "1.1.6",
  "ImageOrientationPatientDICOM": [0.99824, 0, 0.0593064, 0, 1, 0],
  "ImageOrientationText": "Tra>Sag(3.4)",
  "ImageType": [
    "ORIGINAL",
    "PRIMARY",
    "M",
    "ND",
    "MOSAIC"
],
  "ImagingFrequency": 123.254,
  "InPlanePhaseEncodingDirectionDICOM": "COL",
  "InstitutionAddress": "Xinjiekouwai Street No 19,Beijing,Haidian District,CN,100875",
  "InstitutionName": "BNU MRI Center",
  "InstitutionalDepartmentName": "Department",
  "MRAcquisitionType": "2D",
  "MagneticFieldStrength": 3,
  "Manufacturer": "Siemens",
  "ManufacturersModelName": "TrioTim",
  "MatrixCoilMode": "SENSE",
  "Modality": "MR",
  "NonlinearGradientCorrection": false,
  "PartialFourier": 1,
  "PatientPosition": "HFS",
  "PercentPhaseFOV": 100,
  "PercentSampling": 100,
  "PhaseEncodingDirection": "j-",
  "PhaseEncodingSteps": 64,
  "PhaseResolution": 1,
  "PixelBandwidth": 2520,
  "ProcedureStepDescription": "BNU_cst_2015^Guo.TaoMei",
  "ProtocolName": "ge_func_3x3x4_164",
  "PulseSequenceDetails": "%SiemensSeq%\\ep2d_bold",
  "ReceiveCoilName": "HeadMatrix",
  "ReconMatrixPE": 64,
  "RepetitionTime": 2,
  "SAR": 0.187542,
  "ScanOptions": "FS",
  "ScanningSequence": "EP",
  "SequenceName": "*epfid2d1_64",
  "SequenceVariant": "SK",
  "SeriesDescription": "ge_func_3x3x4_164",
  "SeriesNumber": 2,
  "ShimSetting": [-4488, -19439, -9808, 1056, -95, -372, -43, -57],
  "SliceThickness": 4,
  "SliceTiming": [0, 1.0325, 0.06, 1.095, 0.12, 1.155, 0.1825, 1.215, 0.2425, 1.2775, 0.3025, 1.3375, 0.365, 1.3975, 0.425, 1.46, 0.485, 1.52, 0.5475, 1.58, 0.6075, 1.6425, 0.6675, 1.7025, 0.73, 1.7625, 0.79, 1.825, 0.85, 1.885, 0.9125, 1.945, 0.9725],
  "SoftwareVersions": "syngo MR B17",
  "SpacingBetweenSlices": 4.6,
  "StationName": "MRC35193",
  "TaskName": "LanguageControl",
  "TotalReadoutTime": 0.0289803,
  "TxRefAmp": 358.462,
  "dcmmeta_affine": [
    [-3.119499444961548, 0.0, 0.27280932664871216, 98.83252716064453],
    [0.0, 3.125, 0.0, -88.10391235351562],
    [0.18533241748809814, 0.0, 4.591903209686279, -64.5577163696289],
    [0.0, 0.0, 0.0, 1.0]
],
  "dcmmeta_reorient_transform": [
    [0.0, -1.0, 0.0, 63.0],
    [1.0, 0.0, 0.0, 0.0],
    [0.0, 0.0, 1.0, 0.0],
    [0.0, 0.0, 0.0, 1.0]
],
  "dcmmeta_shape": [64, 64, 33, 164],
  "dcmmeta_slice_dim": 2,
  "dcmmeta_version": 0.6,
  "global": {
    "const": {
      "AcquisitionMatrix": [64, 0, 0, 64],
      "AngioFlag": "N",
      "BitsAllocated": 16,
      "BitsStored": 12,
      "Columns": 384,
      "EchoNumbers": 1,
      "EchoTime": 30.0,
      "EchoTrainLength": 1,
      "FlipAngle": 90.0,
      "HighBit": 11,
      "ImageOrientationPatient": [0.99823982793962, 0.0, 0.05930637330917, 0.0, 1.0, 0.0],
      "ImagePositionPatient": [-597.95244162604, -608.77108478546, -94.210902995509],
      "ImageType": [
        "ORIGINAL",
        "PRIMARY",
        "M",
        "ND",
        "MOSAIC"
],
      "ImagedNucleus": "1H",
      "ImagingFrequency": 123.25367,
      "InPlanePhaseEncodingDirection": "COL",
      "MRAcquisitionType": "2D",
      "MagneticFieldStrength": 3.0,
      "Manufacturer": "SIEMENS",
      "ManufacturerModelName": "TrioTim",
      "Modality": "MR",
      "NumberOfAverages": 1.0,
      "NumberOfPhaseEncodingSteps": 64,
      "PercentPhaseFieldOfView": 100.0,
      "PercentSampling": 100.0,
      "PerformedProcedureStepStartTime": "115405.406000",
      "PhotometricInterpretation": "MONOCHROME2",
      "PixelBandwidth": 2520.0,
      "PixelRepresentation": 0,
      "PixelSpacing": [3.125, 3.125],
      "ProtocolName": "ge_func_3x3x4_164",
      "RepetitionTime": 2000.0,
      "Rows": 384,
      "SAR": 0.1875417770356,
      "SamplesPerPixel": 1,
      "ScanOptions": "FS",
      "ScanningSequence": "EP",
      "SequenceName": "*epfid2d1_64",
      "SequenceVariant": "SK",
      "SeriesDescription": "ge_func_3x3x4_164",
      "SeriesNumber": 2,
      "SeriesTime": "115704.250000",
      "SliceLocation": -58.582684872072,
      "SliceThickness": 4.0,
      "SmallestImagePixelValue": 0,
      "SoftwareVersions": "syngo MR B17",
      "SpacingBetweenSlices": 4.6000001199472,
      "SpecificCharacterSet": "ISO_IR 100",
      "StudyID": "1",
      "StudyTime": "115405.328000",
      "TransmitCoilName": "Body",
      "VariableFlipAngleFlag": "N",
      "WindowCenterWidthExplanation": "Algo1",
      "dBdt": 0.0},
    "slices": {}
  },
  "time": {
    "samples": {
      "AcquisitionNumber": [1, 2, 3, 4, 5, 6, 7, 8, 9, 10, 11, 12, 13, 14, 15, 16, 17, 18, 19, 20, 21, 22, 23, 24, 25, 26, 27, 28, 29, 30, 31, 32, 33, 34, 35, 36, 37, 38, 39, 40, 41, 42, 43, 44, 45, 46, 47, 48, 49, 50, 51, 52, 53, 54, 55, 56, 57, 58, 59, 60, 61, 62, 63, 64, 65, 66, 67, 68, 69, 70, 71, 72, 73, 74, 75, 76, 77, 78, 79, 80, 81, 82, 83, 84, 85, 86, 87, 88, 89, 90, 91, 92, 93, 94, 95, 96, 97, 98, 99, 100, 101, 102, 103, 104, 105, 106, 107, 108, 109, 110, 111, 112, 113, 114, 115, 116, 117, 118, 119, 120, 121, 122, 123, 124, 125, 126, 127, 128, 129, 130, 131, 132, 133, 134, 135, 136, 137, 138, 139, 140, 141, 142, 143, 144, 145, 146, 147, 148, 149, 150, 151, 152, 153, 154, 155, 156, 157, 158, 159, 160, 161, 162, 163, 164],
      "AcquisitionTime": ["115609.992500", "115612.000000", "115614.007500", "115616.015000", "115618.022500", "115620.032500", "115622.040000", "115624.047500", "115626.055000", "115628.062500", "115630.072500", "115632.080000", "115634.087500", "115636.095000", "115638.105000", "115640.112500", "115642.120000", "115644.127500", "115646.135000", "115648.145000", "115650.152500", "115652.160000", "115654.167500", "115656.175000", "115658.185000", "115700.192500", "115702.200000", "115704.207500", "115706.215000", "115708.225000", "115710.232500", "115712.240000", "115714.247500", "115716.257500", "115718.265000", "115720.272500", "115722.280000", "115724.287500", "115726.297500", "115728.305000", "115730.312500", "115732.320000", "115734.327500", "115736.337500", "115738.345000", "115740.352500", "115742.360000", "115744.370000", "115746.377500", "115748.385000", "115750.392500", "115752.400000", "115754.410000", "115756.417500", "115758.425000", "115800.432500", "115802.440000", "115804.450000", "115806.457500", "115808.465000", "115810.472500", "115812.482500", "115814.490000", "115816.497500", "115818.505000", "115820.512500", "115822.522500", "115824.530000", "115826.537500", "115828.545000", "115830.552500", "115832.562500", "115834.570000", "115836.577500", "115838.585000", "115840.592500", "115842.602500", "115844.610000", "115846.617500", "115848.625000", "115850.635000", "115852.642500", "115854.650000", "115856.657500", "115858.665000", "115900.675000", "115902.682500", "115904.690000", "115906.697500", "115908.705000", "115910.715000", "115912.722500", "115914.730000", "115916.737500", "115918.747500", "115920.755000", "115922.762500", "115924.770000", "115926.777500", "115928.787500", "115930.795000", "115932.802500", "115934.810000", "115936.817500", "115938.827500", "115940.835000", "115942.842500", "115944.850000", "115946.860000", "115948.867500", "115950.875000", "115952.882500", "115954.890000", "115956.900000", "115958.907500", "120000.915000", "120002.922500", "120004.930000", "120006.940000", "120008.947500", "120010.955000", "120012.962500", "120014.972500", "120016.980000", "120018.987500", "120020.995000", "120023.002500", "120025.012500", "120027.020000", "120029.027500", "120031.035000", "120033.042500", "120035.052500", "120037.060000", "120039.067500", "120041.075000", "120043.082500", "120045.092500", "120047.100000", "120049.107500", "120051.115000", "120053.125000", "120055.132500", "120057.140000", "120059.147500", "120101.155000", "120103.165000", "120105.172500", "120107.180000", "120109.187500", "120111.195000", "120113.205000", "120115.212500", "120117.220000", "120119.227500", "120121.237500", "120123.245000", "120125.252500", "120127.260000", "120129.267500", "120131.277500", "120133.285000", "120135.292500", "120137.300000"],
      "ContentTime": ["115704.250000", "115704.250000", "115704.250000", "115704.250000", "115704.250000", "115704.265000", "115704.265000", "115704.265000", "115704.265000", "115704.265000", "115704.265000", "115704.265000", "115704.265000", "115704.265000", "115704.281000", "115704.281000", "115704.281000", "115704.281000", "115704.281000", "115704.296000", "115704.296000", "115704.296000", "115704.296000", "115704.296000", "115704.296000", "115704.296000", "115744.234000", "115744.250000", "115744.250000", "115744.250000", "115744.250000", "115744.250000", "115744.250000", "115744.250000", "115744.250000", "115744.250000", "115744.265000", "115744.265000", "115744.265000", "115744.265000", "115744.265000", "115744.265000", "115744.265000", "115744.265000", "115744.281000", "115744.281000", "115824.234000", "115824.250000", "115824.250000", "115824.250000", "115824.250000", "115824.265000", "115824.265000", "115824.265000", "115824.265000", "115824.281000", "115824.281000", "115824.281000", "115824.281000", "115824.281000", "115824.296000", "115824.296000", "115824.296000", "115824.296000", "115824.296000", "115824.312000", "115904.234000", "115904.250000", "115904.250000", "115904.250000", "115904.250000", "115904.250000", "115904.250000", "115904.250000", "115904.250000", "115904.265000", "115904.265000", "115904.265000", "115904.281000", "115904.281000", "115904.281000", "115904.281000", "115904.281000", "115904.281000", "115904.281000", "115904.281000", "115924.234000", "115924.250000", "115924.250000", "115924.250000", "115924.250000", "115924.250000", "115924.265000", "115924.265000", "115924.265000", "115924.265000", "120004.234000", "120004.250000", "120004.250000", "120004.250000", "120004.250000", "120004.250000", "120004.265000", "120004.265000", "120004.265000", "120004.265000", "120004.265000", "120004.265000", "120004.265000", "120004.265000", "120004.281000", "120004.281000", "120004.281000", "120004.281000", "120004.281000", "120004.281000", "120044.234000", "120044.234000", "120044.250000", "120044.250000", "120044.250000", "120044.265000", "120044.265000", "120044.265000", "120044.265000", "120044.281000", "120044.281000", "120044.281000", "120044.281000", "120044.281000", "120044.281000", "120044.281000", "120044.281000", "120044.296000", "120044.296000", "120044.296000", "120124.234000", "120124.250000", "120124.250000", "120124.250000", "120124.265000", "120124.265000", "120124.265000", "120124.265000", "120124.281000", "120124.281000", "120124.281000", "120124.281000", "120124.281000", "120124.281000", "120124.281000", "120124.296000", "120124.296000", "120124.296000", "120124.296000", "120124.296000", "120138.406000", "120138.406000", "120138.421000", "120138.421000", "120138.421000", "120138.421000", "120138.421000", "120138.421000"],
      "InstanceCreationTime": ["115704.250000", "115704.250000", "115704.250000", "115704.250000", "115704.250000", "115704.265000", "115704.265000", "115704.265000", "115704.265000", "115704.265000", "115704.265000", "115704.265000", "115704.265000", "115704.265000", "115704.281000", "115704.281000", "115704.281000", "115704.281000", "115704.281000", "115704.296000", "115704.296000", "115704.296000", "115704.296000", "115704.296000", "115704.296000", "115704.296000", "115744.234000", "115744.250000", "115744.250000", "115744.250000", "115744.250000", "115744.250000", "115744.250000", "115744.250000", "115744.250000", "115744.250000", "115744.265000", "115744.265000", "115744.265000", "115744.265000", "115744.265000", "115744.265000", "115744.265000", "115744.265000", "115744.281000", "115744.281000", "115824.234000", "115824.250000", "115824.250000", "115824.250000", "115824.250000", "115824.265000", "115824.265000", "115824.265000", "115824.265000", "115824.281000", "115824.281000", "115824.281000", "115824.281000", "115824.281000", "115824.296000", "115824.296000", "115824.296000", "115824.296000", "115824.296000", "115824.312000", "115904.234000", "115904.250000", "115904.250000", "115904.250000", "115904.250000", "115904.250000", "115904.250000", "115904.250000", "115904.250000", "115904.265000", "115904.265000", "115904.265000", "115904.281000", "115904.281000", "115904.281000", "115904.281000", "115904.281000", "115904.281000", "115904.281000", "115904.281000", "115924.234000", "115924.250000", "115924.250000", "115924.250000", "115924.250000", "115924.250000", "115924.265000", "115924.265000", "115924.265000", "115924.265000", "120004.234000", "120004.250000", "120004.250000", "120004.250000", "120004.250000", "120004.250000", "120004.265000", "120004.265000", "120004.265000", "120004.265000", "120004.265000", "120004.265000", "120004.265000", "120004.265000", "120004.281000", "120004.281000", "120004.281000", "120004.281000", "120004.281000", "120004.281000", "120044.234000", "120044.234000", "120044.250000", "120044.250000", "120044.250000", "120044.265000", "120044.265000", "120044.265000", "120044.265000", "120044.281000", "120044.281000", "120044.281000", "120044.281000", "120044.281000", "120044.281000", "120044.281000", "120044.281000", "120044.296000", "120044.296000", "120044.296000", "120124.234000", "120124.250000", "120124.250000", "120124.250000", "120124.265000", "120124.265000", "120124.265000", "120124.265000", "120124.281000", "120124.281000", "120124.281000", "120124.281000", "120124.281000", "120124.281000", "120124.281000", "120124.296000", "120124.296000", "120124.296000", "120124.296000", "120124.296000", "120138.406000", "120138.406000", "120138.421000", "120138.421000", "120138.421000", "120138.421000", "120138.421000", "120138.421000"],
      "InstanceNumber": [1, 2, 3, 4, 5, 6, 7, 8, 9, 10, 11, 12, 13, 14, 15, 16, 17, 18, 19, 20, 21, 22, 23, 24, 25, 26, 27, 28, 29, 30, 31, 32, 33, 34, 35, 36, 37, 38, 39, 40, 41, 42, 43, 44, 45, 46, 47, 48, 49, 50, 51, 52, 53, 54, 55, 56, 57, 58, 59, 60, 61, 62, 63, 64, 65, 66, 67, 68, 69, 70, 71, 72, 73, 74, 75, 76, 77, 78, 79, 80, 81, 82, 83, 84, 85, 86, 87, 88, 89, 90, 91, 92, 93, 94, 95, 96, 97, 98, 99, 100, 101, 102, 103, 104, 105, 106, 107, 108, 109, 110, 111, 112, 113, 114, 115, 116, 117, 118, 119, 120, 121, 122, 123, 124, 125, 126, 127, 128, 129, 130, 131, 132, 133, 134, 135, 136, 137, 138, 139, 140, 141, 142, 143, 144, 145, 146, 147, 148, 149, 150, 151, 152, 153, 154, 155, 156, 157, 158, 159, 160, 161, 162, 163, 164],
      "LargestImagePixelValue": [1877, 1856, 1791, 1791, 1774, 1857, 1839, 1787, 1779, 1813, 1792, 1767, 1745, 1761, 1747, 1754, 1757, 1747, 1748, 1744, 1757, 1763, 1762, 1785, 1778, 1939, 1776, 1740, 1747, 1761, 1745, 1752, 1761, 1740, 2120, 1715, 1724, 1760, 1764, 1738, 1728, 1794, 1733, 1772, 1714, 1724, 1718, 1716, 1718, 1727, 1737, 1722, 1718, 1737, 1736, 1756, 1737, 1786, 1751, 1770, 1737, 1743, 1725, 1766, 1984, 1809, 1720, 1722, 1720, 1721, 1731, 1717, 1714, 1704, 1732, 1724, 1728, 1905, 1710, 1732, 1739, 1757, 1761, 1760, 1783, 1758, 1758, 1777, 1761, 1784, 1778, 1855, 1715, 1715, 1709, 1747, 1715, 1739, 1717, 1748, 1733, 1737, 1738, 1753, 1733, 1791, 1779, 1773, 1784, 1760, 1755, 1769, 1779, 1841, 1772, 1739, 1738, 1734, 1761, 1768, 1769, 1778, 1799, 1748, 1790, 1813, 1720, 1730, 1718, 1715, 1741, 1743, 1759, 1761, 1744, 1728, 1761, 1756, 1789, 1759, 1765, 1735, 1758, 1837, 1753, 1766, 1760, 1740, 1757, 1751, 1753, 1761, 1773, 1775, 1764, 1741, 1771, 1750, 1804, 1758, 1728, 1732, 1791, 1784],
      "WindowCenter": [744.0, 743.0, 743.0, 743.0, 742.0, 742.0, 740.0, 739.0, 739.0, 740.0, 740.0, 740.0, 740.0, 742.0, 741.0, 742.0, 742.0, 741.0, 741.0, 741.0, 741.0, 742.0, 743.0, 743.0, 742.0, 742.0, 740.0, 741.0, 740.0, 741.0, 741.0, 742.0, 742.0, 740.0, 742.0, 740.0, 741.0, 742.0, 741.0, 741.0, 740.0, 741.0, 740.0, 741.0, 740.0, 740.0, 740.0, 739.0, 740.0, 739.0, 740.0, 740.0, 740.0, 741.0, 740.0, 741.0, 742.0, 742.0, 742.0, 742.0, 742.0, 742.0, 741.0, 739.0, 740.0, 738.0, 738.0, 738.0, 740.0, 739.0, 739.0, 739.0, 738.0, 738.0, 739.0, 739.0, 739.0, 741.0, 739.0, 741.0, 741.0, 740.0, 740.0, 741.0, 741.0, 741.0, 741.0, 742.0, 742.0, 742.0, 741.0, 741.0, 739.0, 738.0, 738.0, 739.0, 739.0, 739.0, 739.0, 740.0, 740.0, 740.0, 740.0, 740.0, 740.0, 742.0, 741.0, 741.0, 741.0, 741.0, 741.0, 739.0, 740.0, 739.0, 739.0, 739.0, 740.0, 741.0, 741.0, 742.0, 741.0, 742.0, 741.0, 741.0, 740.0, 740.0, 738.0, 739.0, 740.0, 740.0, 740.0, 739.0, 741.0, 741.0, 741.0, 740.0, 741.0, 741.0, 741.0, 741.0, 740.0, 740.0, 740.0, 741.0, 741.0, 742.0, 741.0, 740.0, 740.0, 741.0, 742.0, 742.0, 743.0, 743.0, 742.0, 741.0, 741.0, 740.0, 741.0, 741.0, 741.0, 741.0, 742.0, 743.0],
      "WindowWidth": [1616.0, 1611.0, 1611.0, 1611.0, 1608.0, 1607.0, 1603.0, 1599.0, 1600.0, 1602.0, 1603.0, 1604.0, 1603.0, 1607.0, 1607.0, 1609.0, 1607.0, 1604.0, 1606.0, 1604.0, 1605.0, 1609.0, 1610.0, 1611.0, 1609.0, 1609.0, 1603.0, 1604.0, 1604.0, 1606.0, 1607.0, 1608.0, 1608.0, 1604.0, 1609.0, 1604.0, 1607.0, 1608.0, 1606.0, 1605.0, 1603.0, 1606.0, 1603.0, 1605.0, 1603.0, 1602.0, 1602.0, 1600.0, 1602.0, 1601.0, 1604.0, 1604.0, 1604.0, 1606.0, 1604.0, 1607.0, 1610.0, 1609.0, 1608.0, 1610.0, 1609.0, 1607.0, 1606.0, 1601.0, 1602.0, 1598.0, 1596.0, 1598.0, 1602.0, 1601.0, 1601.0, 1601.0, 1598.0, 1596.0, 1599.0, 1599.0, 1601.0, 1605.0, 1599.0, 1605.0, 1606.0, 1604.0, 1605.0, 1606.0, 1608.0, 1605.0, 1605.0, 1610.0, 1608.0, 1608.0, 1606.0, 1605.0, 1601.0, 1598.0, 1596.0, 1599.0, 1599.0, 1601.0, 1601.0, 1603.0, 1604.0, 1604.0, 1603.0, 1604.0, 1604.0, 1608.0, 1606.0, 1605.0, 1606.0, 1605.0, 1606.0, 1601.0, 1602.0, 1600.0, 1601.0, 1600.0, 1603.0, 1606.0, 1606.0, 1609.0, 1606.0, 1608.0, 1606.0, 1605.0, 1602.0, 1602.0, 1598.0, 1601.0, 1603.0, 1603.0, 1603.0, 1601.0, 1605.0, 1607.0, 1605.0, 1604.0, 1606.0, 1607.0, 1607.0, 1605.0, 1603.0, 1602.0, 1604.0, 1606.0, 1605.0, 1607.0, 1606.0, 1601.0, 1604.0, 1607.0, 1609.0, 1609.0, 1611.0, 1610.0, 1609.0, 1606.0, 1606.0, 1603.0, 1606.0, 1606.0, 1604.0, 1606.0, 1610.0, 1610.0]
    },
    "slices": {}
  }
}