{
  "AcquisitionMatrixPE": 64,
  "AcquisitionNumber": 1,
  "AcquisitionTime": "12:02:19.417500",
  "BandwidthPerPixelPhaseEncode": 33.967,
  "BaseResolution": 64,
  "CoilCombinationMethod": "Sum of Squares",
  "CoilString": "C:HEA;HEP",
  "ConversionSoftware": "dcm2niix",
  "ConversionSoftwareVersion": "v1.0.20220720",
  "DerivedVendorReportedEchoSpacing": 0.000460005,
  "DeviceSerialNumber": "35193",
  "DwellTime": 3.1e-06,
  "EchoTime": 0.03,
  "EffectiveEchoSpacing": 0.000460005,
  "FlipAngle": 90,
  "HeudiconvVersion": "1.1.6",
  "ImageOrientationPatientDICOM": [0.99824, 0, 0.0593064, 0, 1, 0],
  "ImageOrientationText": "Tra>Sag(3.4)",
  "ImageType": [
    "ORIGINAL",
    "PRIMARY",
    "M",
    "ND",
    "MOSAIC"
],
  "ImagingFrequency": 123.254,
  "InPlanePhaseEncodingDirectionDICOM": "COL",
  "InstitutionAddress": "Xinjiekouwai Street No 19,Beijing,Haidian District,CN,100875",
  "InstitutionName": "BNU MRI Center",
  "InstitutionalDepartmentName": "Department",
  "MRAcquisitionType": "2D",
  "MagneticFieldStrength": 3,
  "Manufacturer": "Siemens",
  "ManufacturersModelName": "TrioTim",
  "MatrixCoilMode": "SENSE",
  "Modality": "MR",
  "NonlinearGradientCorrection": false,
  "PartialFourier": 1,
  "PatientPosition": "HFS",
  "PercentPhaseFOV": 100,
  "PercentSampling": 100,
  "PhaseEncodingDirection": "j-",
  "PhaseEncodingSteps": 64,
  "PhaseResolution": 1,
  "PixelBandwidth": 2520,
  "ProcedureStepDescription": "BNU_cst_2015^Guo.TaoMei",
  "ProtocolName": "ge_func_3x3x4_164",
  "PulseSequenceDetails": "%SiemensSeq%\\ep2d_bold",
  "ReceiveCoilName": "HeadMatrix",
  "ReconMatrixPE": 64,
  "RepetitionTime": 2,
  "SAR": 0.187542,
  "ScanOptions": "FS",
  "ScanningSequence": "EP",
  "SequenceName": "*epfid2d1_64",
  "SequenceVariant": "SK",
  "SeriesDescription": "ge_func_3x3x4_164",
  "SeriesNumber": 3,
  "ShimSetting": [-4488, -19439, -9808, 1056, -95, -372, -43, -57],
  "SliceThickness": 4,
  "SliceTiming": [0, 1.035, 0.06, 1.095, 0.1225, 1.155, 0.1825, 1.2175, 0.2425, 1.2775, 0.305, 1.3375, 0.365, 1.4, 0.425, 1.46, 0.4875, 1.52, 0.5475, 1.5825, 0.6075, 1.6425, 0.67, 1.7025, 0.73, 1.765, 0.79, 1.825, 0.8525, 1.885, 0.9125, 1.9475, 0.9725],
  "SoftwareVersions": "syngo MR B17",
  "SpacingBetweenSlices": 4.6,
  "StationName": "MRC35193",
  "TaskName": "LanguageControl",
  "TotalReadoutTime": 0.0289803,
  "TxRefAmp": 358.462,
  "dcmmeta_affine": [
    [-3.119499444961548, 0.0, 0.27280932664871216, 98.83252716064453],
    [0.0, 3.125, 0.0, -88.10391235351562],
    [0.18533241748809814, 0.0, 4.591903209686279, -64.5577163696289],
    [0.0, 0.0, 0.0, 1.0]
],
  "dcmmeta_reorient_transform": [
    [0.0, -1.0, 0.0, 63.0],
    [1.0, 0.0, 0.0, 0.0],
    [0.0, 0.0, 1.0, 0.0],
    [0.0, 0.0, 0.0, 1.0]
],
  "dcmmeta_shape": [64, 64, 33, 164],
  "dcmmeta_slice_dim": 2,
  "dcmmeta_version": 0.6,
  "global": {
    "const": {
      "AcquisitionMatrix": [64, 0, 0, 64],
      "AngioFlag": "N",
      "BitsAllocated": 16,
      "BitsStored": 12,
      "Columns": 384,
      "EchoNumbers": 1,
      "EchoTime": 30.0,
      "EchoTrainLength": 1,
      "FlipAngle": 90.0,
      "HighBit": 11,
      "ImageOrientationPatient": [0.99823982793962, 0.0, 0.05930637330917, 0.0, 1.0, 0.0],
      "ImagePositionPatient": [-597.95244162604, -608.77108478546, -94.210902995509],
      "ImageType": [
        "ORIGINAL",
        "PRIMARY",
        "M",
        "ND",
        "MOSAIC"
],
      "ImagedNucleus": "1H",
      "ImagingFrequency": 123.253671,
      "InPlanePhaseEncodingDirection": "COL",
      "MRAcquisitionType": "2D",
      "MagneticFieldStrength": 3.0,
      "Manufacturer": "SIEMENS",
      "ManufacturerModelName": "TrioTim",
      "Modality": "MR",
      "NumberOfAverages": 1.0,
      "NumberOfPhaseEncodingSteps": 64,
      "PercentPhaseFieldOfView": 100.0,
      "PercentSampling": 100.0,
      "PerformedProcedureStepStartTime": "115405.406000",
      "PhotometricInterpretation": "MONOCHROME2",
      "PixelBandwidth": 2520.0,
      "PixelRepresentation": 0,
      "PixelSpacing": [3.125, 3.125],
      "ProtocolName": "ge_func_3x3x4_164",
      "RepetitionTime": 2000.0,
      "Rows": 384,
      "SAR": 0.1875417770356,
      "SamplesPerPixel": 1,
      "ScanOptions": "FS",
      "ScanningSequence": "EP",
      "SequenceName": "*epfid2d1_64",
      "SequenceVariant": "SK",
      "SeriesDescription": "ge_func_3x3x4_164",
      "SeriesNumber": 3,
      "SeriesTime": "120307.078000",
      "SliceLocation": -58.582684872072,
      "SliceThickness": 4.0,
      "SmallestImagePixelValue": 0,
      "SoftwareVersions": "syngo MR B17",
      "SpacingBetweenSlices": 4.6000001199472,
      "SpecificCharacterSet": "ISO_IR 100",
      "StudyID": "1",
      "StudyTime": "115405.328000",
      "TransmitCoilName": "Body",
      "VariableFlipAngleFlag": "N",
      "WindowCenterWidthExplanation": "Algo1",
      "dBdt": 0.0},
    "slices": {}
  },
  "time": {
    "samples": {
      "AcquisitionNumber": [1, 2, 3, 4, 5, 6, 7, 8, 9, 10, 11, 12, 13, 14, 15, 16, 17, 18, 19, 20, 21, 22, 23, 24, 25, 26, 27, 28, 29, 30, 31, 32, 33, 34, 35, 36, 37, 38, 39, 40, 41, 42, 43, 44, 45, 46, 47, 48, 49, 50, 51, 52, 53, 54, 55, 56, 57, 58, 59, 60, 61, 62, 63, 64, 65, 66, 67, 68, 69, 70, 71, 72, 73, 74, 75, 76, 77, 78, 79, 80, 81, 82, 83, 84, 85, 86, 87, 88, 89, 90, 91, 92, 93, 94, 95, 96, 97, 98, 99, 100, 101, 102, 103, 104, 105, 106, 107, 108, 109, 110, 111, 112, 113, 114, 115, 116, 117, 118, 119, 120, 121, 122, 123, 124, 125, 126, 127, 128, 129, 130, 131, 132, 133, 134, 135, 136, 137, 138, 139, 140, 141, 142, 143, 144, 145, 146, 147, 148, 149, 150, 151, 152, 153, 154, 155, 156, 157, 158, 159, 160, 161, 162, 163, 164],
      "AcquisitionTime": ["120219.417500", "120221.425000", "120223.432500", "120225.440000", "120227.450000", "120229.457500", "120231.465000", "120233.472500", "120235.482500", "120237.490000", "120239.497500", "120241.505000", "120243.512500", "120245.522500", "120247.530000", "120249.537500", "120251.545000", "120253.552500", "120255.562500", "120257.570000", "120259.577500", "120301.585000", "120303.595000", "120305.602500", "120307.610000", "120309.617500", "120311.625000", "120313.635000", "120315.642500", "120317.650000", "120319.657500", "120321.665000", "120323.675000", "120325.682500", "120327.690000", "120329.697500", "120331.707500", "120333.715000", "120335.722500", "120337.730000", "120339.737500", "120341.747500", "120343.755000", "120345.762500", "120347.770000", "120349.777500", "120351.787500", "120353.795000", "120355.802500", "120357.810000", "120359.817500", "120401.827500", "120403.835000", "120405.842500", "120407.850000", "120409.860000", "120411.867500", "120413.875000", "120415.882500", "120417.890000", "120419.900000", "120421.907500", "120423.915000", "120425.922500", "120427.930000", "120429.940000", "120431.947500", "120433.955000", "120435.962500", "120437.972500", "120439.980000", "120441.987500", "120443.995000", "120446.002500", "120448.012500", "120450.020000", "120452.027500", "120454.035000", "120456.042500", "120458.052500", "120500.060000", "120502.067500", "120504.075000", "120506.085000", "120508.092500", "120510.100000", "120512.107500", "120514.115000", "120516.125000", "120518.132500", "120520.140000", "120522.147500", "120524.155000", "120526.165000", "120528.172500", "120530.180000", "120532.187500", "120534.195000", "120536.205000", "120538.212500", "120540.220000", "120542.227500", "120544.237500", "120546.245000", "120548.252500", "120550.260000", "120552.267500", "120554.277500", "120556.285000", "120558.292500", "120600.300000", "120602.307500", "120604.317500", "120606.325000", "120608.332500", "120610.340000", "120612.350000", "120614.357500", "120616.365000", "120618.372500", "120620.380000", "120622.390000", "120624.397500", "120626.405000", "120628.412500", "120630.420000", "120632.430000", "120634.437500", "120636.445000", "120638.452500", "120640.462500", "120642.470000", "120644.477500", "120646.485000", "120648.492500", "120650.502500", "120652.510000", "120654.517500", "120656.525000", "120658.532500", "120700.542500", "120702.550000", "120704.557500", "120706.565000", "120708.572500", "120710.582500", "120712.590000", "120714.597500", "120716.605000", "120718.615000", "120720.622500", "120722.630000", "120724.637500", "120726.645000", "120728.655000", "120730.662500", "120732.670000", "120734.677500", "120736.685000", "120738.695000", "120740.702500", "120742.710000", "120744.717500", "120746.727500"],
      "ContentTime": ["120307.078000", "120307.078000", "120307.078000", "120307.078000", "120307.078000", "120307.093000", "120307.093000", "120307.109000", "120307.109000", "120307.109000", "120307.109000", "120307.109000", "120307.109000", "120307.109000", "120307.109000", "120307.125000", "120307.125000", "120307.125000", "120307.125000", "120307.125000", "120307.140000", "120307.140000", "120307.140000", "120347.062000", "120347.078000", "120347.078000", "120347.078000", "120347.078000", "120347.093000", "120347.093000", "120347.093000", "120347.093000", "120347.093000", "120347.109000", "120347.109000", "120347.109000", "120347.109000", "120347.125000", "120347.125000", "120347.125000", "120347.125000", "120347.125000", "120347.125000", "120427.062000", "120427.078000", "120427.078000", "120427.078000", "120427.078000", "120427.078000", "120427.078000", "120427.078000", "120427.093000", "120427.093000", "120427.093000", "120427.093000", "120427.093000", "120427.109000", "120427.109000", "120427.109000", "120427.109000", "120427.109000", "120427.109000", "120427.109000", "120507.062000", "120507.078000", "120507.078000", "120507.078000", "120507.078000", "120507.078000", "120507.078000", "120507.078000", "120507.093000", "120507.093000", "120507.093000", "120507.093000", "120507.093000", "120507.093000", "120507.093000", "120507.093000", "120507.109000", "120507.109000", "120507.109000", "120507.109000", "120547.062000", "120547.078000", "120547.078000", "120547.078000", "120547.078000", "120547.093000", "120547.093000", "120547.109000", "120547.109000", "120547.109000", "120547.125000", "120547.125000", "120547.125000", "120547.125000", "120547.125000", "120547.125000", "120547.125000", "120547.125000", "120547.140000", "120547.140000", "120627.062000", "120627.078000", "120627.078000", "120627.078000", "120627.078000", "120627.078000", "120627.078000", "120627.078000", "120627.078000", "120627.093000", "120627.093000", "120627.093000", "120627.093000", "120627.093000", "120627.093000", "120627.093000", "120627.109000", "120627.109000", "120627.109000", "120627.109000", "120707.062000", "120707.078000", "120707.078000", "120707.078000", "120707.093000", "120707.093000", "120707.093000", "120707.093000", "120707.093000", "120707.093000", "120707.093000", "120707.109000", "120707.109000", "120707.109000", "120707.109000", "120707.109000", "120707.109000", "120707.109000", "120707.109000", "120707.125000", "120747.062000", "120747.078000", "120747.078000", "120747.078000", "120747.078000", "120747.078000", "120747.078000", "120747.078000", "120747.093000", "120747.093000", "120747.093000", "120747.093000", "120747.109000", "120747.109000", "120747.109000", "120747.109000", "120747.109000", "120747.109000", "120747.109000", "120747.109000", "120748.671000"],
      "InstanceCreationTime": ["120307.078000", "120307.078000", "120307.078000", "120307.078000", "120307.078000", "120307.093000", "120307.093000", "120307.109000", "120307.109000", "120307.109000", "120307.109000", "120307.109000", "120307.109000", "120307.109000", "120307.109000", "120307.125000", "120307.125000", "120307.125000", "120307.125000", "120307.125000", "120307.140000", "120307.140000", "120307.140000", "120347.062000", "120347.078000", "120347.078000", "120347.078000", "120347.078000", "120347.093000", "120347.093000", "120347.093000", "120347.093000", "120347.093000", "120347.109000", "120347.109000", "120347.109000", "120347.109000", "120347.125000", "120347.125000", "120347.125000", "120347.125000", "120347.125000", "120347.125000", "120427.062000", "120427.078000", "120427.078000", "120427.078000", "120427.078000", "120427.078000", "120427.078000", "120427.078000", "120427.093000", "120427.093000", "120427.093000", "120427.093000", "120427.093000", "120427.109000", "120427.109000", "120427.109000", "120427.109000", "120427.109000", "120427.109000", "120427.109000", "120507.062000", "120507.078000", "120507.078000", "120507.078000", "120507.078000", "120507.078000", "120507.078000", "120507.078000", "120507.093000", "120507.093000", "120507.093000", "120507.093000", "120507.093000", "120507.093000", "120507.093000", "120507.093000", "120507.109000", "120507.109000", "120507.109000", "120507.109000", "120547.062000", "120547.078000", "120547.078000", "120547.078000", "120547.078000", "120547.093000", "120547.093000", "120547.109000", "120547.109000", "120547.109000", "120547.125000", "120547.125000", "120547.125000", "120547.125000", "120547.125000", "120547.125000", "120547.125000", "120547.125000", "120547.140000", "120547.140000", "120627.062000", "120627.078000", "120627.078000", "120627.078000", "120627.078000", "120627.078000", "120627.078000", "120627.078000", "120627.078000", "120627.093000", "120627.093000", "120627.093000", "120627.093000", "120627.093000", "120627.093000", "120627.093000", "120627.109000", "120627.109000", "120627.109000", "120627.109000", "120707.062000", "120707.078000", "120707.078000", "120707.078000", "120707.093000", "120707.093000", "120707.093000", "120707.093000", "120707.093000", "120707.093000", "120707.093000", "120707.109000", "120707.109000", "120707.109000", "120707.109000", "120707.109000", "120707.109000", "120707.109000", "120707.109000", "120707.125000", "120747.062000", "120747.078000", "120747.078000", "120747.078000", "120747.078000", "120747.078000", "120747.078000", "120747.078000", "120747.093000", "120747.093000", "120747.093000", "120747.093000", "120747.109000", "120747.109000", "120747.109000", "120747.109000", "120747.109000", "120747.109000", "120747.109000", "120747.109000", "120748.671000"],
      "InstanceNumber": [1, 2, 3, 4, 5, 6, 7, 8, 9, 10, 11, 12, 13, 14, 15, 16, 17, 18, 19, 20, 21, 22, 23, 24, 25, 26, 27, 28, 29, 30, 31, 32, 33, 34, 35, 36, 37, 38, 39, 40, 41, 42, 43, 44, 45, 46, 47, 48, 49, 50, 51, 52, 53, 54, 55, 56, 57, 58, 59, 60, 61, 62, 63, 64, 65, 66, 67, 68, 69, 70, 71, 72, 73, 74, 75, 76, 77, 78, 79, 80, 81, 82, 83, 84, 85, 86, 87, 88, 89, 90, 91, 92, 93, 94, 95, 96, 97, 98, 99, 100, 101, 102, 103, 104, 105, 106, 107, 108, 109, 110, 111, 112, 113, 114, 115, 116, 117, 118, 119, 120, 121, 122, 123, 124, 125, 126, 127, 128, 129, 130, 131, 132, 133, 134, 135, 136, 137, 138, 139, 140, 141, 142, 143, 144, 145, 146, 147, 148, 149, 150, 151, 152, 153, 154, 155, 156, 157, 158, 159, 160, 161, 162, 163, 164],
      "LargestImagePixelValue": [1845, 1799, 1820, 1775, 1759, 2147, 1775, 1772, 1739, 1778, 1753, 1760, 1772, 1757, 1732, 1750, 1747, 1797, 1745, 1774, 1765, 1754, 1808, 1792, 1799, 1840, 1852, 1764, 1761, 1772, 1765, 1763, 1800, 1772, 1767, 1770, 1782, 1765, 1762, 1742, 1744, 1751, 1770, 1741, 1785, 1735, 1758, 1768, 1756, 1776, 1761, 1769, 1715, 1775, 1951, 1751, 1745, 1753, 1729, 1767, 1777, 1807, 1788, 1765, 1746, 1750, 1761, 1752, 1779, 1776, 1758, 1777, 1780, 1761, 1763, 1765, 1794, 1794, 1792, 1787, 1944, 1777, 1759, 1753, 1788, 1788, 1781, 1792, 1754, 1774, 1775, 1767, 1773, 1782, 1976, 1795, 1771, 1805, 1772, 1781, 1780, 1773, 1761, 1777, 1795, 1793, 1776, 1760, 1761, 1740, 1781, 1785, 1759, 1780, 1783, 1816, 1797, 1781, 1791, 1760, 1779, 1777, 1772, 1755, 1773, 1788, 1772, 1776, 1796, 1809, 1793, 1790, 1786, 1781, 1780, 1785, 1799, 1784, 1799, 1792, 1800, 1786, 1811, 1791, 1816, 1789, 1788, 1798, 1788, 1806, 1795, 1786, 1780, 1781, 1789, 1793, 1790, 1796, 1771, 1788, 1793, 1776, 1771, 1810],
      "WindowCenter": [745.0, 744.0, 744.0, 743.0, 741.0, 742.0, 740.0, 740.0, 739.0, 740.0, 740.0, 740.0, 741.0, 740.0, 740.0, 741.0, 742.0, 742.0, 741.0, 741.0, 741.0, 743.0, 744.0, 744.0, 743.0, 742.0, 742.0, 741.0, 740.0, 741.0, 742.0, 741.0, 741.0, 739.0, 739.0, 739.0, 738.0, 739.0, 739.0, 739.0, 740.0, 741.0, 741.0, 740.0, 739.0, 739.0, 739.0, 740.0, 740.0, 741.0, 742.0, 741.0, 740.0, 739.0, 739.0, 738.0, 738.0, 740.0, 741.0, 741.0, 743.0, 744.0, 742.0, 742.0, 740.0, 738.0, 738.0, 738.0, 738.0, 738.0, 738.0, 738.0, 738.0, 739.0, 740.0, 740.0, 741.0, 741.0, 740.0, 740.0, 741.0, 739.0, 739.0, 739.0, 739.0, 739.0, 739.0, 741.0, 742.0, 742.0, 743.0, 743.0, 742.0, 741.0, 741.0, 741.0, 741.0, 740.0, 741.0, 742.0, 742.0, 742.0, 742.0, 742.0, 741.0, 741.0, 742.0, 742.0, 743.0, 744.0, 743.0, 743.0, 742.0, 742.0, 741.0, 741.0, 741.0, 742.0, 743.0, 743.0, 742.0, 742.0, 743.0, 742.0, 742.0, 741.0, 741.0, 740.0, 741.0, 741.0, 742.0, 742.0, 743.0, 742.0, 742.0, 742.0, 742.0, 742.0, 742.0, 742.0, 742.0, 741.0, 741.0, 741.0, 741.0, 740.0, 740.0, 741.0, 740.0, 741.0, 742.0, 742.0, 744.0, 744.0, 743.0, 742.0, 742.0, 742.0, 743.0, 743.0, 743.0, 743.0, 742.0, 742.0],
      "WindowWidth": [1619.0, 1613.0, 1613.0, 1611.0, 1606.0, 1608.0, 1601.0, 1602.0, 1601.0, 1602.0, 1602.0, 1604.0, 1604.0, 1604.0, 1604.0, 1606.0, 1609.0, 1608.0, 1607.0, 1605.0, 1607.0, 1610.0, 1613.0, 1613.0, 1611.0, 1608.0, 1608.0, 1604.0, 1604.0, 1606.0, 1607.0, 1606.0, 1604.0, 1599.0, 1598.0, 1599.0, 1599.0, 1599.0, 1600.0, 1600.0, 1603.0, 1606.0, 1605.0, 1602.0, 1601.0, 1600.0, 1600.0, 1603.0, 1601.0, 1606.0, 1608.0, 1605.0, 1601.0, 1600.0, 1600.0, 1596.0, 1598.0, 1602.0, 1606.0, 1607.0, 1611.0, 1615.0, 1610.0, 1609.0, 1604.0, 1598.0, 1598.0, 1598.0, 1598.0, 1598.0, 1599.0, 1599.0, 1599.0, 1600.0, 1604.0, 1604.0, 1606.0, 1606.0, 1603.0, 1603.0, 1606.0, 1600.0, 1599.0, 1601.0, 1600.0, 1601.0, 1601.0, 1605.0, 1608.0, 1610.0, 1612.0, 1611.0, 1608.0, 1605.0, 1606.0, 1604.0, 1605.0, 1603.0, 1606.0, 1608.0, 1609.0, 1609.0, 1606.0, 1607.0, 1606.0, 1606.0, 1607.0, 1609.0, 1612.0, 1613.0, 1612.0, 1611.0, 1609.0, 1607.0, 1606.0, 1605.0, 1606.0, 1609.0, 1610.0, 1610.0, 1608.0, 1609.0, 1610.0, 1609.0, 1607.0, 1606.0, 1605.0, 1603.0, 1606.0, 1606.0, 1607.0, 1608.0, 1612.0, 1608.0, 1609.0, 1607.0, 1607.0, 1607.0, 1608.0, 1609.0, 1607.0, 1605.0, 1604.0, 1605.0, 1604.0, 1602.0, 1603.0, 1605.0, 1602.0, 1605.0, 1609.0, 1609.0, 1613.0, 1613.0, 1610.0, 1606.0, 1609.0, 1608.0, 1610.0, 1610.0, 1611.0, 1612.0, 1608.0, 1607.0]
    },
    "slices": {}
  }
}