{
  "AcquisitionMatrixPE": 64,
  "AcquisitionNumber": 1,
  "AcquisitionTime": "14:15:46.380000",
  "BandwidthPerPixelPhaseEncode": 33.967,
  "BaseResolution": 64,
  "CoilCombinationMethod": "Sum of Squares",
  "CoilString": "C:HEA;HEP",
  "ConversionSoftware": "dcm2niix",
  "ConversionSoftwareVersion": "v1.0.20220720",
  "DerivedVendorReportedEchoSpacing": 0.000460005,
  "DeviceSerialNumber": "35193",
  "DwellTime": 3.1e-06,
  "EchoTime": 0.03,
  "EffectiveEchoSpacing": 0.000460005,
  "FlipAngle": 90,
  "HeudiconvVersion": "1.1.6",
  "ImageOrientationPatientDICOM": [0.999193, 0.0226874, -0.0331466, -0.0226749, 0.999743, 0.000752202],
  "ImageOrientationText": "Tra>Sag(-1.9)",
  "ImageType": [
    "ORIGINAL",
    "PRIMARY",
    "M",
    "ND",
    "MOSAIC"
],
  "ImagingFrequency": 123.254,
  "InPlanePhaseEncodingDirectionDICOM": "COL",
  "InstitutionAddress": "Xinjiekouwai Street No 19,Beijing,Haidian District,CN,100875",
  "InstitutionName": "BNU MRI Center",
  "InstitutionalDepartmentName": "Department",
  "MRAcquisitionType": "2D",
  "MagneticFieldStrength": 3,
  "Manufacturer": "Siemens",
  "ManufacturersModelName": "TrioTim",
  "MatrixCoilMode": "SENSE",
  "Modality": "MR",
  "NonlinearGradientCorrection": false,
  "PartialFourier": 1,
  "PatientPosition": "HFS",
  "PercentPhaseFOV": 100,
  "PercentSampling": 100,
  "PhaseEncodingDirection": "j-",
  "PhaseEncodingSteps": 64,
  "PhaseResolution": 1,
  "PixelBandwidth": 2520,
  "ProcedureStepDescription": "BNU_cst_2015^Guo.TaoMei",
  "ProtocolName": "ge_func_3x3x4_164",
  "PulseSequenceDetails": "%SiemensSeq%\\ep2d_bold",
  "ReceiveCoilName": "HeadMatrix",
  "ReconMatrixPE": 64,
  "RepetitionTime": 2,
  "SAR": 0.167184,
  "ScanOptions": "FS",
  "ScanningSequence": "EP",
  "SequenceName": "*epfid2d1_64",
  "SequenceVariant": "SK",
  "SeriesDescription": "ge_func_3x3x4_164",
  "SeriesNumber": 2,
  "ShimSetting": [-4494, -19502, -9825, 942, -58, -893, -117, -56],
  "SliceThickness": 4,
  "SliceTiming": [0, 1.035, 0.0625, 1.095, 0.1225, 1.1575, 0.1825, 1.2175, 0.245, 1.2775, 0.305, 1.34, 0.365, 1.4, 0.4275, 1.46, 0.4875, 1.5225, 0.5475, 1.5825, 0.61, 1.6425, 0.67, 1.705, 0.73, 1.765, 0.7925, 1.825, 0.8525, 1.8875, 0.9125, 1.9475, 0.975],
  "SoftwareVersions": "syngo MR B17",
  "SpacingBetweenSlices": 4.6,
  "StationName": "MRC35193",
  "TaskName": "LanguageControl",
  "TotalReadoutTime": 0.0289803,
  "TxRefAmp": 327.202,
  "dcmmeta_affine": [
    [-3.1224780082702637, -0.07085904479026794, -0.15251381695270538, 107.25494384765625],
    [-0.07089802622795105, 3.1241955757141113, -6.214317949115866e-09, -84.46084594726562],
    [-0.10358326137065887, -0.002350632334128022, 4.597470760345459, -59.3768196105957],
    [0.0, 0.0, 0.0, 1.0]
],
  "dcmmeta_reorient_transform": [
    [0.0, -1.0, 0.0, 63.0],
    [1.0, 0.0, 0.0, 0.0],
    [0.0, 0.0, 1.0, 0.0],
    [0.0, 0.0, 0.0, 1.0]
],
  "dcmmeta_shape": [64, 64, 33, 164],
  "dcmmeta_slice_dim": 2,
  "dcmmeta_version": 0.6,
  "global": {
    "const": {
      "AcquisitionMatrix": [64, 0, 0, 64],
      "AngioFlag": "N",
      "BitsAllocated": 16,
      "BitsStored": 12,
      "Columns": 384,
      "EchoNumbers": 1,
      "EchoTime": 30.0,
      "EchoTrainLength": 1,
      "FlipAngle": 90.0,
      "HighBit": 11,
      "ImageOrientationPatient": [0.9991929660131, 0.02268736794479, -0.0331466439581, -0.0226748948368, 0.99974260854269, 0.00075220236788],
      "ImagePositionPatient": [-591.04985885721, -623.57846738357, -43.327689751662],
      "ImageType": [
        "ORIGINAL",
        "PRIMARY",
        "M",
        "ND",
        "MOSAIC"
],
      "ImagedNucleus": "1H",
      "ImagingFrequency": 123.253718,
      "InPlanePhaseEncodingDirection": "COL",
      "MRAcquisitionType": "2D",
      "MagneticFieldStrength": 3.0,
      "Manufacturer": "SIEMENS",
      "ManufacturerModelName": "TrioTim",
      "Modality": "MR",
      "NumberOfAverages": 1.0,
      "NumberOfPhaseEncodingSteps": 64,
      "PercentPhaseFieldOfView": 100.0,
      "PercentSampling": 100.0,
      "PerformedProcedureStepStartTime": "141341.812000",
      "PhotometricInterpretation": "MONOCHROME2",
      "PixelBandwidth": 2520.0,
      "PixelRepresentation": 0,
      "PixelSpacing": [3.125, 3.125],
      "ProtocolName": "ge_func_3x3x4_164",
      "RepetitionTime": 2000.0,
      "Rows": 384,
      "SAR": 0.16718363754245,
      "SamplesPerPixel": 1,
      "ScanOptions": "FS",
      "ScanningSequence": "EP",
      "SequenceName": "*epfid2d1_64",
      "SequenceVariant": "SK",
      "SeriesDescription": "ge_func_3x3x4_164",
      "SeriesNumber": 2,
      "SeriesTime": "141647.890000",
      "SliceLocation": -62.900232873243,
      "SliceThickness": 4.0,
      "SmallestImagePixelValue": 0,
      "SoftwareVersions": "syngo MR B17",
      "SpacingBetweenSlices": 4.5999998861338,
      "SpecificCharacterSet": "ISO_IR 100",
      "StudyID": "1",
      "StudyTime": "141341.734000",
      "TransmitCoilName": "Body",
      "VariableFlipAngleFlag": "N",
      "WindowCenterWidthExplanation": "Algo1",
      "dBdt": 0.0},
    "slices": {}
  },
  "time": {
    "samples": {
      "AcquisitionNumber": [1, 2, 3, 4, 5, 6, 7, 8, 9, 10, 11, 12, 13, 14, 15, 16, 17, 18, 19, 20, 21, 22, 23, 24, 25, 26, 27, 28, 29, 30, 31, 32, 33, 34, 35, 36, 37, 38, 39, 40, 41, 42, 43, 44, 45, 46, 47, 48, 49, 50, 51, 52, 53, 54, 55, 56, 57, 58, 59, 60, 61, 62, 63, 64, 65, 66, 67, 68, 69, 70, 71, 72, 73, 74, 75, 76, 77, 78, 79, 80, 81, 82, 83, 84, 85, 86, 87, 88, 89, 90, 91, 92, 93, 94, 95, 96, 97, 98, 99, 100, 101, 102, 103, 104, 105, 106, 107, 108, 109, 110, 111, 112, 113, 114, 115, 116, 117, 118, 119, 120, 121, 122, 123, 124, 125, 126, 127, 128, 129, 130, 131, 132, 133, 134, 135, 136, 137, 138, 139, 140, 141, 142, 143, 144, 145, 146, 147, 148, 149, 150, 151, 152, 153, 154, 155, 156, 157, 158, 159, 160, 161, 162, 163, 164],
      "AcquisitionTime": ["141546.380000", "141548.390000", "141550.397500", "141552.405000", "141554.412500", "141556.420000", "141558.430000", "141600.437500", "141602.445000", "141604.452500", "141606.462500", "141608.470000", "141610.477500", "141612.485000", "141614.492500", "141616.502500", "141618.510000", "141620.517500", "141622.525000", "141624.532500", "141626.542500", "141628.550000", "141630.557500", "141632.565000", "141634.575000", "141636.582500", "141638.590000", "141640.597500", "141642.605000", "141644.615000", "141646.622500", "141648.630000", "141650.637500", "141652.645000", "141654.655000", "141656.662500", "141658.670000", "141700.677500", "141702.687500", "141704.695000", "141706.702500", "141708.710000", "141710.717500", "141712.727500", "141714.735000", "141716.742500", "141718.750000", "141720.757500", "141722.767500", "141724.775000", "141726.782500", "141728.790000", "141730.797500", "141732.807500", "141734.815000", "141736.822500", "141738.830000", "141740.840000", "141742.847500", "141744.855000", "141746.862500", "141748.870000", "141750.880000", "141752.887500", "141754.895000", "141756.902500", "141758.910000", "141800.920000", "141802.927500", "141804.935000", "141806.942500", "141808.952500", "141810.960000", "141812.967500", "141814.975000", "141816.982500", "141818.992500", "141821.000000", "141823.007500", "141825.015000", "141827.022500", "141829.032500", "141831.040000", "141833.047500", "141835.055000", "141837.065000", "141839.072500", "141841.080000", "141843.087500", "141845.095000", "141847.105000", "141849.112500", "141851.120000", "141853.127500", "141855.135000", "141857.145000", "141859.152500", "141901.160000", "141903.167500", "141905.177500", "141907.185000", "141909.192500", "141911.200000", "141913.207500", "141915.217500", "141917.225000", "141919.232500", "141921.240000", "141923.247500", "141925.257500", "141927.265000", "141929.272500", "141931.280000", "141933.287500", "141935.297500", "141937.305000", "141939.312500", "141941.320000", "141943.330000", "141945.337500", "141947.345000", "141949.352500", "141951.360000", "141953.370000", "141955.377500", "141957.385000", "141959.392500", "142001.400000", "142003.410000", "142005.417500", "142007.425000", "142009.432500", "142011.442500", "142013.450000", "142015.457500", "142017.465000", "142019.472500", "142021.482500", "142023.490000", "142025.497500", "142027.505000", "142029.512500", "142031.522500", "142033.530000", "142035.537500", "142037.545000", "142039.555000", "142041.562500", "142043.570000", "142045.577500", "142047.585000", "142049.595000", "142051.602500", "142053.610000", "142055.617500", "142057.625000", "142059.635000", "142101.642500", "142103.650000", "142105.657500", "142107.665000", "142109.675000", "142111.682500", "142113.690000"],
      "ContentTime": ["141647.890000", "141647.906000", "141647.906000", "141647.906000", "141647.906000", "141647.906000", "141647.906000", "141647.906000", "141647.906000", "141647.921000", "141647.921000", "141647.921000", "141647.921000", "141647.921000", "141647.937000", "141647.937000", "141647.937000", "141647.937000", "141647.953000", "141647.953000", "141647.953000", "141647.953000", "141647.953000", "141647.953000", "141647.953000", "141647.968000", "141647.968000", "141647.968000", "141647.968000", "141727.890000", "141727.906000", "141727.906000", "141727.906000", "141727.906000", "141727.906000", "141727.906000", "141727.906000", "141727.906000", "141727.921000", "141727.921000", "141727.921000", "141727.921000", "141727.921000", "141727.921000", "141727.921000", "141727.921000", "141727.937000", "141727.937000", "141727.937000", "141807.890000", "141807.890000", "141807.906000", "141807.906000", "141807.906000", "141807.906000", "141807.906000", "141807.906000", "141807.906000", "141807.906000", "141807.921000", "141807.921000", "141807.921000", "141807.921000", "141807.921000", "141807.921000", "141807.937000", "141807.937000", "141807.937000", "141807.937000", "141847.890000", "141847.890000", "141847.890000", "141847.890000", "141847.890000", "141847.906000", "141847.906000", "141847.906000", "141847.906000", "141847.906000", "141847.906000", "141847.906000", "141847.906000", "141847.906000", "141847.921000", "141847.921000", "141847.921000", "141847.921000", "141847.921000", "141847.921000", "141927.890000", "141927.890000", "141927.890000", "141927.890000", "141927.906000", "141927.906000", "141927.906000", "141927.906000", "141927.906000", "141927.906000", "141927.921000", "141927.921000", "141927.921000", "141927.921000", "141927.921000", "141927.921000", "141927.921000", "141927.921000", "141927.937000", "141927.937000", "141947.890000", "141947.890000", "141947.890000", "141947.890000", "141947.906000", "141947.906000", "141947.906000", "141947.906000", "141947.906000", "141947.906000", "142027.890000", "142027.890000", "142027.890000", "142027.890000", "142027.906000", "142027.906000", "142027.906000", "142027.906000", "142027.921000", "142027.921000", "142027.921000", "142027.921000", "142027.921000", "142027.921000", "142027.921000", "142027.921000", "142027.937000", "142027.937000", "142027.937000", "142027.937000", "142107.890000", "142107.890000", "142107.890000", "142107.890000", "142107.906000", "142107.906000", "142107.906000", "142107.906000", "142107.906000", "142107.906000", "142107.906000", "142107.906000", "142107.921000", "142107.921000", "142107.921000", "142107.921000", "142107.921000", "142107.921000", "142107.921000", "142107.921000", "142116.078000", "142116.093000", "142116.093000", "142116.093000", "142116.093000"],
      "InstanceCreationTime": ["141647.890000", "141647.906000", "141647.906000", "141647.906000", "141647.906000", "141647.906000", "141647.906000", "141647.906000", "141647.906000", "141647.921000", "141647.921000", "141647.921000", "141647.921000", "141647.921000", "141647.937000", "141647.937000", "141647.937000", "141647.937000", "141647.953000", "141647.953000", "141647.953000", "141647.953000", "141647.953000", "141647.953000", "141647.953000", "141647.968000", "141647.968000", "141647.968000", "141647.968000", "141727.890000", "141727.906000", "141727.906000", "141727.906000", "141727.906000", "141727.906000", "141727.906000", "141727.906000", "141727.906000", "141727.921000", "141727.921000", "141727.921000", "141727.921000", "141727.921000", "141727.921000", "141727.921000", "141727.921000", "141727.937000", "141727.937000", "141727.937000", "141807.890000", "141807.890000", "141807.906000", "141807.906000", "141807.906000", "141807.906000", "141807.906000", "141807.906000", "141807.906000", "141807.906000", "141807.921000", "141807.921000", "141807.921000", "141807.921000", "141807.921000", "141807.921000", "141807.937000", "141807.937000", "141807.937000", "141807.937000", "141847.890000", "141847.890000", "141847.890000", "141847.890000", "141847.890000", "141847.906000", "141847.906000", "141847.906000", "141847.906000", "141847.906000", "141847.906000", "141847.906000", "141847.906000", "141847.906000", "141847.921000", "141847.921000", "141847.921000", "141847.921000", "141847.921000", "141847.921000", "141927.890000", "141927.890000", "141927.890000", "141927.890000", "141927.906000", "141927.906000", "141927.906000", "141927.906000", "141927.906000", "141927.906000", "141927.921000", "141927.921000", "141927.921000", "141927.921000", "141927.921000", "141927.921000", "141927.921000", "141927.921000", "141927.937000", "141927.937000", "141947.890000", "141947.890000", "141947.890000", "141947.890000", "141947.906000", "141947.906000", "141947.906000", "141947.906000", "141947.906000", "141947.906000", "142027.890000", "142027.890000", "142027.890000", "142027.890000", "142027.906000", "142027.906000", "142027.906000", "142027.906000", "142027.921000", "142027.921000", "142027.921000", "142027.921000", "142027.921000", "142027.921000", "142027.921000", "142027.921000", "142027.937000", "142027.937000", "142027.937000", "142027.937000", "142107.890000", "142107.890000", "142107.890000", "142107.890000", "142107.906000", "142107.906000", "142107.906000", "142107.906000", "142107.906000", "142107.906000", "142107.906000", "142107.906000", "142107.921000", "142107.921000", "142107.921000", "142107.921000", "142107.921000", "142107.921000", "142107.921000", "142107.921000", "142116.078000", "142116.093000", "142116.093000", "142116.093000", "142116.093000"],
      "InstanceNumber": [1, 2, 3, 4, 5, 6, 7, 8, 9, 10, 11, 12, 13, 14, 15, 16, 17, 18, 19, 20, 21, 22, 23, 24, 25, 26, 27, 28, 29, 30, 31, 32, 33, 34, 35, 36, 37, 38, 39, 40, 41, 42, 43, 44, 45, 46, 47, 48, 49, 50, 51, 52, 53, 54, 55, 56, 57, 58, 59, 60, 61, 62, 63, 64, 65, 66, 67, 68, 69, 70, 71, 72, 73, 74, 75, 76, 77, 78, 79, 80, 81, 82, 83, 84, 85, 86, 87, 88, 89, 90, 91, 92, 93, 94, 95, 96, 97, 98, 99, 100, 101, 102, 103, 104, 105, 106, 107, 108, 109, 110, 111, 112, 113, 114, 115, 116, 117, 118, 119, 120, 121, 122, 123, 124, 125, 126, 127, 128, 129, 130, 131, 132, 133, 134, 135, 136, 137, 138, 139, 140, 141, 142, 143, 144, 145, 146, 147, 148, 149, 150, 151, 152, 153, 154, 155, 156, 157, 158, 159, 160, 161, 162, 163, 164],
      "LargestImagePixelValue": [1793, 1722, 1727, 1726, 1752, 1704, 1720, 1719, 1709, 1694, 1713, 1690, 1687, 1713, 1679, 1686, 1715, 1699, 1713, 1688, 1691, 1706, 1700, 1700, 1712, 1668, 1702, 1700, 1696, 1696, 1717, 1696, 1702, 1696, 1671, 1756, 1702, 1678, 1711, 1687, 1761, 1719, 1721, 1715, 1685, 1697, 1686, 1689, 1696, 1703, 1679, 1674, 1713, 1694, 1692, 1693, 1706, 1686, 1707, 1706, 1704, 1697, 1695, 1684, 1705, 1697, 1697, 1685, 1693, 1697, 1704, 1705, 1705, 1738, 1699, 1681, 1685, 1716, 1733, 1703, 1711, 1699, 1710, 1690, 1693, 1703, 1663, 1675, 1715, 1701, 1720, 1716, 1698, 1678, 1702, 1686, 1659, 1712, 1697, 1694, 1679, 1710, 1674, 1679, 1673, 1712, 1668, 1700, 1703, 1718, 1704, 1686, 1704, 1686, 1704, 1681, 1687, 1720, 1721, 1686, 1720, 1689, 1683, 1677, 1690, 1698, 1685, 1719, 1671, 1698, 1693, 1699, 1668, 1661, 1687, 1687, 1689, 1662, 1685, 1689, 1686, 1675, 1684, 1680, 1698, 1668, 1618, 1664, 1678, 1666, 1666, 1707, 1699, 1657, 1647, 1644, 1661, 1683, 1680, 1678, 1704, 1649, 1649, 1714],
      "WindowCenter": [707.0, 706.0, 708.0, 707.0, 706.0, 705.0, 705.0, 704.0, 704.0, 704.0, 704.0, 703.0, 704.0, 705.0, 705.0, 704.0, 705.0, 705.0, 706.0, 706.0, 706.0, 706.0, 706.0, 706.0, 706.0, 704.0, 704.0, 703.0, 704.0, 704.0, 704.0, 704.0, 704.0, 704.0, 704.0, 705.0, 704.0, 704.0, 704.0, 704.0, 704.0, 704.0, 703.0, 703.0, 701.0, 701.0, 700.0, 700.0, 701.0, 702.0, 702.0, 703.0, 705.0, 705.0, 704.0, 704.0, 703.0, 702.0, 704.0, 703.0, 703.0, 703.0, 704.0, 702.0, 703.0, 703.0, 704.0, 704.0, 706.0, 705.0, 705.0, 704.0, 703.0, 703.0, 703.0, 703.0, 704.0, 704.0, 704.0, 703.0, 703.0, 703.0, 703.0, 704.0, 704.0, 705.0, 704.0, 703.0, 702.0, 702.0, 704.0, 702.0, 703.0, 702.0, 702.0, 703.0, 703.0, 703.0, 703.0, 703.0, 703.0, 703.0, 704.0, 706.0, 705.0, 706.0, 704.0, 705.0, 704.0, 703.0, 703.0, 703.0, 704.0, 704.0, 704.0, 704.0, 703.0, 702.0, 702.0, 703.0, 705.0, 704.0, 705.0, 704.0, 704.0, 705.0, 704.0, 704.0, 704.0, 705.0, 704.0, 704.0, 704.0, 704.0, 704.0, 704.0, 704.0, 704.0, 704.0, 704.0, 705.0, 704.0, 704.0, 705.0, 704.0, 705.0, 705.0, 705.0, 704.0, 704.0, 704.0, 706.0, 705.0, 705.0, 704.0, 703.0, 703.0, 705.0, 705.0, 704.0, 705.0, 704.0, 703.0, 703.0],
      "WindowWidth": [1544.0, 1542.0, 1547.0, 1544.0, 1541.0, 1537.0, 1537.0, 1535.0, 1535.0, 1535.0, 1534.0, 1533.0, 1535.0, 1539.0, 1538.0, 1536.0, 1537.0, 1539.0, 1540.0, 1540.0, 1539.0, 1540.0, 1542.0, 1541.0, 1540.0, 1535.0, 1535.0, 1533.0, 1535.0, 1536.0, 1537.0, 1536.0, 1535.0, 1536.0, 1536.0, 1538.0, 1535.0, 1535.0, 1536.0, 1534.0, 1535.0, 1533.0, 1532.0, 1530.0, 1527.0, 1525.0, 1523.0, 1524.0, 1528.0, 1529.0, 1529.0, 1533.0, 1537.0, 1537.0, 1535.0, 1534.0, 1531.0, 1528.0, 1535.0, 1533.0, 1532.0, 1533.0, 1533.0, 1530.0, 1533.0, 1532.0, 1534.0, 1536.0, 1540.0, 1538.0, 1538.0, 1535.0, 1533.0, 1532.0, 1532.0, 1532.0, 1533.0, 1534.0, 1534.0, 1531.0, 1532.0, 1532.0, 1533.0, 1534.0, 1534.0, 1539.0, 1535.0, 1532.0, 1529.0, 1530.0, 1534.0, 1530.0, 1532.0, 1530.0, 1530.0, 1531.0, 1531.0, 1533.0, 1531.0, 1532.0, 1533.0, 1533.0, 1535.0, 1539.0, 1538.0, 1540.0, 1535.0, 1537.0, 1534.0, 1533.0, 1532.0, 1532.0, 1534.0, 1535.0, 1535.0, 1534.0, 1530.0, 1528.0, 1528.0, 1531.0, 1537.0, 1534.0, 1537.0, 1534.0, 1533.0, 1537.0, 1535.0, 1535.0, 1535.0, 1536.0, 1535.0, 1535.0, 1534.0, 1535.0, 1534.0, 1535.0, 1535.0, 1534.0, 1534.0, 1535.0, 1536.0, 1535.0, 1534.0, 1536.0, 1536.0, 1538.0, 1537.0, 1536.0, 1535.0, 1533.0, 1535.0, 1539.0, 1538.0, 1537.0, 1535.0, 1533.0, 1532.0, 1536.0, 1537.0, 1535.0, 1537.0, 1535.0, 1532.0, 1533.0]
    },
    "slices": {}
  }
}