{
  "AcquisitionMatrixPE": 64,
  "AcquisitionNumber": 1,
  "AcquisitionTime": "14:21:57.120000",
  "BandwidthPerPixelPhaseEncode": 33.967,
  "BaseResolution": 64,
  "CoilCombinationMethod": "Sum of Squares",
  "CoilString": "C:HEA;HEP",
  "ConversionSoftware": "dcm2niix",
  "ConversionSoftwareVersion": "v1.0.20220720",
  "DerivedVendorReportedEchoSpacing": 0.000460005,
  "DeviceSerialNumber": "35193",
  "DwellTime": 3.1e-06,
  "EchoTime": 0.03,
  "EffectiveEchoSpacing": 0.000460005,
  "FlipAngle": 90,
  "HeudiconvVersion": "1.1.6",
  "ImageOrientationPatientDICOM": [0.999193, 0.0226874, -0.0331466, -0.0226749, 0.999743, 0.000752202],
  "ImageOrientationText": "Tra>Sag(-1.9)",
  "ImageType": [
    "ORIGINAL",
    "PRIMARY",
    "M",
    "ND",
    "MOSAIC"
],
  "ImagingFrequency": 123.254,
  "InPlanePhaseEncodingDirectionDICOM": "COL",
  "InstitutionAddress": "Xinjiekouwai Street No 19,Beijing,Haidian District,CN,100875",
  "InstitutionName": "BNU MRI Center",
  "InstitutionalDepartmentName": "Department",
  "MRAcquisitionType": "2D",
  "MagneticFieldStrength": 3,
  "Manufacturer": "Siemens",
  "ManufacturersModelName": "TrioTim",
  "MatrixCoilMode": "SENSE",
  "Modality": "MR",
  "NonlinearGradientCorrection": false,
  "PartialFourier": 1,
  "PatientPosition": "HFS",
  "PercentPhaseFOV": 100,
  "PercentSampling": 100,
  "PhaseEncodingDirection": "j-",
  "PhaseEncodingSteps": 64,
  "PhaseResolution": 1,
  "PixelBandwidth": 2520,
  "ProcedureStepDescription": "BNU_cst_2015^Guo.TaoMei",
  "ProtocolName": "ge_func_3x3x4_164",
  "PulseSequenceDetails": "%SiemensSeq%\\ep2d_bold",
  "ReceiveCoilName": "HeadMatrix",
  "ReconMatrixPE": 64,
  "RepetitionTime": 2,
  "SAR": 0.167184,
  "ScanOptions": "FS",
  "ScanningSequence": "EP",
  "SequenceName": "*epfid2d1_64",
  "SequenceVariant": "SK",
  "SeriesDescription": "ge_func_3x3x4_164",
  "SeriesNumber": 3,
  "ShimSetting": [-4494, -19502, -9825, 942, -58, -893, -117, -56],
  "SliceThickness": 4,
  "SliceTiming": [0, 1.035, 0.0625, 1.095, 0.1225, 1.1575, 0.1825, 1.2175, 0.245, 1.2775, 0.305, 1.34, 0.365, 1.4, 0.4275, 1.46, 0.4875, 1.5225, 0.5475, 1.5825, 0.61, 1.6425, 0.67, 1.705, 0.73, 1.765, 0.7925, 1.825, 0.8525, 1.8875, 0.9125, 1.9475, 0.975],
  "SoftwareVersions": "syngo MR B17",
  "SpacingBetweenSlices": 4.6,
  "StationName": "MRC35193",
  "TaskName": "LanguageControl",
  "TotalReadoutTime": 0.0289803,
  "TxRefAmp": 327.202,
  "dcmmeta_affine": [
    [-3.1224780082702637, -0.07085904479026794, -0.15251381695270538, 107.25494384765625],
    [-0.07089802622795105, 3.1241955757141113, -6.214317949115866e-09, -84.46084594726562],
    [-0.10358326137065887, -0.002350632334128022, 4.597470760345459, -59.3768196105957],
    [0.0, 0.0, 0.0, 1.0]
],
  "dcmmeta_reorient_transform": [
    [0.0, -1.0, 0.0, 63.0],
    [1.0, 0.0, 0.0, 0.0],
    [0.0, 0.0, 1.0, 0.0],
    [0.0, 0.0, 0.0, 1.0]
],
  "dcmmeta_shape": [64, 64, 33, 164],
  "dcmmeta_slice_dim": 2,
  "dcmmeta_version": 0.6,
  "global": {
    "const": {
      "AcquisitionMatrix": [64, 0, 0, 64],
      "AngioFlag": "N",
      "BitsAllocated": 16,
      "BitsStored": 12,
      "Columns": 384,
      "EchoNumbers": 1,
      "EchoTime": 30.0,
      "EchoTrainLength": 1,
      "FlipAngle": 90.0,
      "HighBit": 11,
      "ImageOrientationPatient": [0.9991929660131, 0.02268736794479, -0.0331466439581, -0.0226748948368, 0.99974260854269, 0.00075220236788],
      "ImagePositionPatient": [-591.04985885721, -623.57846738357, -43.327689751662],
      "ImageType": [
        "ORIGINAL",
        "PRIMARY",
        "M",
        "ND",
        "MOSAIC"
],
      "ImagedNucleus": "1H",
      "ImagingFrequency": 123.253714,
      "InPlanePhaseEncodingDirection": "COL",
      "MRAcquisitionType": "2D",
      "MagneticFieldStrength": 3.0,
      "Manufacturer": "SIEMENS",
      "ManufacturerModelName": "TrioTim",
      "Modality": "MR",
      "NumberOfAverages": 1.0,
      "NumberOfPhaseEncodingSteps": 64,
      "PercentPhaseFieldOfView": 100.0,
      "PercentSampling": 100.0,
      "PerformedProcedureStepStartTime": "141341.812000",
      "PhotometricInterpretation": "MONOCHROME2",
      "PixelBandwidth": 2520.0,
      "PixelRepresentation": 0,
      "PixelSpacing": [3.125, 3.125],
      "ProtocolName": "ge_func_3x3x4_164",
      "RepetitionTime": 2000.0,
      "Rows": 384,
      "SAR": 0.16718363754245,
      "SamplesPerPixel": 1,
      "ScanOptions": "FS",
      "ScanningSequence": "EP",
      "SequenceName": "*epfid2d1_64",
      "SequenceVariant": "SK",
      "SeriesDescription": "ge_func_3x3x4_164",
      "SeriesNumber": 3,
      "SeriesTime": "142247.640000",
      "SliceLocation": -62.900232873243,
      "SliceThickness": 4.0,
      "SmallestImagePixelValue": 0,
      "SoftwareVersions": "syngo MR B17",
      "SpacingBetweenSlices": 4.5999998861338,
      "SpecificCharacterSet": "ISO_IR 100",
      "StudyID": "1",
      "StudyTime": "141341.734000",
      "TransmitCoilName": "Body",
      "VariableFlipAngleFlag": "N",
      "WindowCenterWidthExplanation": "Algo1",
      "dBdt": 0.0},
    "slices": {}
  },
  "time": {
    "samples": {
      "AcquisitionNumber": [1, 2, 3, 4, 5, 6, 7, 8, 9, 10, 11, 12, 13, 14, 15, 16, 17, 18, 19, 20, 21, 22, 23, 24, 25, 26, 27, 28, 29, 30, 31, 32, 33, 34, 35, 36, 37, 38, 39, 40, 41, 42, 43, 44, 45, 46, 47, 48, 49, 50, 51, 52, 53, 54, 55, 56, 57, 58, 59, 60, 61, 62, 63, 64, 65, 66, 67, 68, 69, 70, 71, 72, 73, 74, 75, 76, 77, 78, 79, 80, 81, 82, 83, 84, 85, 86, 87, 88, 89, 90, 91, 92, 93, 94, 95, 96, 97, 98, 99, 100, 101, 102, 103, 104, 105, 106, 107, 108, 109, 110, 111, 112, 113, 114, 115, 116, 117, 118, 119, 120, 121, 122, 123, 124, 125, 126, 127, 128, 129, 130, 131, 132, 133, 134, 135, 136, 137, 138, 139, 140, 141, 142, 143, 144, 145, 146, 147, 148, 149, 150, 151, 152, 153, 154, 155, 156, 157, 158, 159, 160, 161, 162, 163, 164],
      "AcquisitionTime": ["142157.120000", "142159.130000", "142201.137500", "142203.145000", "142205.152500", "142207.160000", "142209.170000", "142211.177500", "142213.185000", "142215.192500", "142217.202500", "142219.210000", "142221.217500", "142223.225000", "142225.232500", "142227.242500", "142229.250000", "142231.257500", "142233.265000", "142235.272500", "142237.282500", "142239.290000", "142241.297500", "142243.305000", "142245.312500", "142247.322500", "142249.330000", "142251.337500", "142253.345000", "142255.355000", "142257.362500", "142259.370000", "142301.377500", "142303.385000", "142305.395000", "142307.402500", "142309.410000", "142311.417500", "142313.425000", "142315.435000", "142317.442500", "142319.450000", "142321.457500", "142323.467500", "142325.475000", "142327.482500", "142329.490000", "142331.497500", "142333.507500", "142335.515000", "142337.522500", "142339.530000", "142341.537500", "142343.547500", "142345.555000", "142347.562500", "142349.570000", "142351.580000", "142353.587500", "142355.595000", "142357.602500", "142359.610000", "142401.620000", "142403.627500", "142405.635000", "142407.642500", "142409.650000", "142411.660000", "142413.667500", "142415.675000", "142417.682500", "142419.690000", "142421.700000", "142423.707500", "142425.715000", "142427.722500", "142429.732500", "142431.740000", "142433.747500", "142435.755000", "142437.762500", "142439.772500", "142441.780000", "142443.787500", "142445.795000", "142447.802500", "142449.812500", "142451.820000", "142453.827500", "142455.835000", "142457.845000", "142459.852500", "142501.860000", "142503.867500", "142505.875000", "142507.885000", "142509.892500", "142511.900000", "142513.907500", "142515.915000", "142517.925000", "142519.932500", "142521.940000", "142523.947500", "142525.957500", "142527.965000", "142529.972500", "142531.980000", "142533.987500", "142535.997500", "142538.005000", "142540.012500", "142542.020000", "142544.027500", "142546.037500", "142548.045000", "142550.052500", "142552.060000", "142554.067500", "142556.077500", "142558.085000", "142600.092500", "142602.100000", "142604.110000", "142606.117500", "142608.125000", "142610.132500", "142612.140000", "142614.150000", "142616.157500", "142618.165000", "142620.172500", "142622.180000", "142624.190000", "142626.197500", "142628.205000", "142630.212500", "142632.222500", "142634.230000", "142636.237500", "142638.245000", "142640.252500", "142642.262500", "142644.270000", "142646.277500", "142648.285000", "142650.292500", "142652.302500", "142654.310000", "142656.317500", "142658.325000", "142700.335000", "142702.342500", "142704.350000", "142706.357500", "142708.365000", "142710.375000", "142712.382500", "142714.390000", "142716.397500", "142718.405000", "142720.415000", "142722.422500", "142724.430000"],
      "ContentTime": ["142247.640000", "142247.656000", "142247.656000", "142247.656000", "142247.656000", "142247.656000", "142247.656000", "142247.671000", "142247.671000", "142247.671000", "142247.671000", "142247.671000", "142247.687000", "142247.687000", "142247.687000", "142247.687000", "142247.687000", "142247.687000", "142247.687000", "142247.687000", "142247.703000", "142247.703000", "142247.703000", "142247.703000", "142327.640000", "142327.656000", "142327.656000", "142327.656000", "142327.656000", "142327.656000", "142327.671000", "142327.671000", "142327.671000", "142327.671000", "142327.671000", "142327.671000", "142327.671000", "142327.671000", "142327.687000", "142327.687000", "142327.687000", "142327.687000", "142327.687000", "142327.687000", "142407.640000", "142407.640000", "142407.640000", "142407.640000", "142407.656000", "142407.656000", "142407.656000", "142407.656000", "142407.656000", "142407.656000", "142407.656000", "142407.671000", "142407.671000", "142407.671000", "142407.671000", "142407.671000", "142407.671000", "142407.671000", "142407.671000", "142407.687000", "142447.640000", "142447.656000", "142447.656000", "142447.656000", "142447.671000", "142447.671000", "142447.671000", "142447.671000", "142447.671000", "142447.687000", "142447.687000", "142447.687000", "142447.687000", "142447.687000", "142447.703000", "142447.703000", "142447.703000", "142447.703000", "142447.703000", "142447.703000", "142527.640000", "142527.640000", "142527.640000", "142527.640000", "142527.656000", "142527.656000", "142527.656000", "142527.656000", "142527.671000", "142527.671000", "142527.671000", "142527.671000", "142527.671000", "142527.687000", "142527.687000", "142527.687000", "142527.687000", "142527.687000", "142527.687000", "142527.687000", "142607.640000", "142607.656000", "142607.656000", "142607.656000", "142607.656000", "142607.671000", "142607.671000", "142607.671000", "142607.671000", "142607.671000", "142607.671000", "142607.671000", "142607.687000", "142607.687000", "142607.687000", "142607.687000", "142607.687000", "142607.687000", "142607.687000", "142607.687000", "142647.640000", "142647.640000", "142647.640000", "142647.640000", "142647.656000", "142647.656000", "142647.656000", "142647.656000", "142647.671000", "142647.671000", "142647.671000", "142647.671000", "142647.671000", "142647.671000", "142647.671000", "142647.671000", "142647.687000", "142647.687000", "142647.687000", "142647.687000", "142726.734000", "142726.734000", "142726.750000", "142726.750000", "142726.750000", "142726.750000", "142726.750000", "142726.750000", "142726.750000", "142726.750000", "142726.765000", "142726.765000", "142726.765000", "142726.765000", "142726.765000", "142726.765000", "142726.765000", "142726.765000", "142726.781000", "142726.781000"],
      "InstanceCreationTime": ["142247.640000", "142247.656000", "142247.656000", "142247.656000", "142247.656000", "142247.656000", "142247.656000", "142247.671000", "142247.671000", "142247.671000", "142247.671000", "142247.671000", "142247.687000", "142247.687000", "142247.687000", "142247.687000", "142247.687000", "142247.687000", "142247.687000", "142247.687000", "142247.703000", "142247.703000", "142247.703000", "142247.703000", "142327.640000", "142327.656000", "142327.656000", "142327.656000", "142327.656000", "142327.656000", "142327.671000", "142327.671000", "142327.671000", "142327.671000", "142327.671000", "142327.671000", "142327.671000", "142327.671000", "142327.687000", "142327.687000", "142327.687000", "142327.687000", "142327.687000", "142327.687000", "142407.640000", "142407.640000", "142407.640000", "142407.640000", "142407.656000", "142407.656000", "142407.656000", "142407.656000", "142407.656000", "142407.656000", "142407.656000", "142407.671000", "142407.671000", "142407.671000", "142407.671000", "142407.671000", "142407.671000", "142407.671000", "142407.671000", "142407.687000", "142447.640000", "142447.656000", "142447.656000", "142447.656000", "142447.671000", "142447.671000", "142447.671000", "142447.671000", "142447.671000", "142447.687000", "142447.687000", "142447.687000", "142447.687000", "142447.687000", "142447.703000", "142447.703000", "142447.703000", "142447.703000", "142447.703000", "142447.703000", "142527.640000", "142527.640000", "142527.640000", "142527.640000", "142527.656000", "142527.656000", "142527.656000", "142527.656000", "142527.671000", "142527.671000", "142527.671000", "142527.671000", "142527.671000", "142527.687000", "142527.687000", "142527.687000", "142527.687000", "142527.687000", "142527.687000", "142527.687000", "142607.640000", "142607.656000", "142607.656000", "142607.656000", "142607.656000", "142607.671000", "142607.671000", "142607.671000", "142607.671000", "142607.671000", "142607.671000", "142607.671000", "142607.687000", "142607.687000", "142607.687000", "142607.687000", "142607.687000", "142607.687000", "142607.687000", "142607.687000", "142647.640000", "142647.640000", "142647.640000", "142647.640000", "142647.656000", "142647.656000", "142647.656000", "142647.656000", "142647.671000", "142647.671000", "142647.671000", "142647.671000", "142647.671000", "142647.671000", "142647.671000", "142647.671000", "142647.687000", "142647.687000", "142647.687000", "142647.687000", "142726.734000", "142726.734000", "142726.750000", "142726.750000", "142726.750000", "142726.750000", "142726.750000", "142726.750000", "142726.750000", "142726.750000", "142726.765000", "142726.765000", "142726.765000", "142726.765000", "142726.765000", "142726.765000", "142726.765000", "142726.765000", "142726.781000", "142726.781000"],
      "InstanceNumber": [1, 2, 3, 4, 5, 6, 7, 8, 9, 10, 11, 12, 13, 14, 15, 16, 17, 18, 19, 20, 21, 22, 23, 24, 25, 26, 27, 28, 29, 30, 31, 32, 33, 34, 35, 36, 37, 38, 39, 40, 41, 42, 43, 44, 45, 46, 47, 48, 49, 50, 51, 52, 53, 54, 55, 56, 57, 58, 59, 60, 61, 62, 63, 64, 65, 66, 67, 68, 69, 70, 71, 72, 73, 74, 75, 76, 77, 78, 79, 80, 81, 82, 83, 84, 85, 86, 87, 88, 89, 90, 91, 92, 93, 94, 95, 96, 97, 98, 99, 100, 101, 102, 103, 104, 105, 106, 107, 108, 109, 110, 111, 112, 113, 114, 115, 116, 117, 118, 119, 120, 121, 122, 123, 124, 125, 126, 127, 128, 129, 130, 131, 132, 133, 134, 135, 136, 137, 138, 139, 140, 141, 142, 143, 144, 145, 146, 147, 148, 149, 150, 151, 152, 153, 154, 155, 156, 157, 158, 159, 160, 161, 162, 163, 164],
      "LargestImagePixelValue": [1779, 1709, 1702, 1675, 1701, 1659, 1721, 1749, 1669, 1687, 1711, 1692, 1694, 1706, 1694, 1703, 1667, 1709, 1696, 1678, 1691, 1707, 1695, 1668, 1682, 1677, 1698, 1674, 1688, 1692, 1680, 1714, 1701, 1681, 1702, 1699, 1689, 1677, 1685, 1703, 1724, 1667, 1731, 1709, 1680, 1726, 1710, 1701, 1717, 1696, 1690, 1669, 1704, 1687, 1689, 1697, 1699, 1740, 1687, 1689, 1686, 1676, 1705, 1734, 1673, 1707, 1734, 1685, 1727, 1697, 1697, 1688, 1692, 1722, 1696, 1713, 1701, 1685, 1693, 1703, 1714, 1686, 1731, 1663, 1694, 1684, 1705, 1695, 1697, 1678, 1715, 1705, 1700, 1721, 1703, 1710, 1682, 1705, 1673, 1683, 1702, 1683, 1689, 1690, 1660, 1687, 1703, 1708, 1704, 1729, 1678, 1660, 1696, 1686, 1693, 1656, 1671, 1693, 1689, 1689, 1705, 1678, 1718, 1694, 1690, 1702, 1671, 1664, 1685, 1698, 1693, 1693, 1696, 1708, 1698, 1689, 1675, 1686, 1685, 1693, 1690, 1685, 1697, 1672, 1671, 1670, 1700, 1681, 1681, 1674, 1687, 1686, 1668, 1696, 1677, 1682, 1672, 1690, 1692, 1674, 1695, 1672, 1680, 1675],
      "WindowCenter": [708.0, 706.0, 707.0, 707.0, 708.0, 708.0, 707.0, 706.0, 706.0, 705.0, 704.0, 704.0, 705.0, 705.0, 705.0, 705.0, 704.0, 704.0, 704.0, 705.0, 705.0, 707.0, 707.0, 707.0, 706.0, 706.0, 705.0, 705.0, 706.0, 707.0, 706.0, 706.0, 705.0, 705.0, 705.0, 705.0, 705.0, 705.0, 705.0, 705.0, 705.0, 705.0, 706.0, 706.0, 706.0, 705.0, 705.0, 705.0, 705.0, 705.0, 706.0, 705.0, 705.0, 704.0, 704.0, 705.0, 705.0, 706.0, 706.0, 707.0, 706.0, 705.0, 703.0, 704.0, 705.0, 705.0, 705.0, 705.0, 704.0, 704.0, 705.0, 705.0, 705.0, 706.0, 705.0, 705.0, 704.0, 705.0, 705.0, 705.0, 705.0, 706.0, 706.0, 706.0, 705.0, 704.0, 705.0, 706.0, 706.0, 705.0, 705.0, 706.0, 705.0, 705.0, 705.0, 706.0, 707.0, 706.0, 706.0, 706.0, 707.0, 707.0, 707.0, 706.0, 706.0, 705.0, 704.0, 704.0, 704.0, 705.0, 706.0, 707.0, 707.0, 706.0, 705.0, 705.0, 705.0, 706.0, 706.0, 707.0, 707.0, 708.0, 707.0, 708.0, 707.0, 707.0, 706.0, 707.0, 708.0, 708.0, 708.0, 708.0, 707.0, 707.0, 708.0, 707.0, 707.0, 707.0, 707.0, 706.0, 706.0, 706.0, 706.0, 707.0, 708.0, 708.0, 708.0, 707.0, 706.0, 706.0, 707.0, 707.0, 706.0, 707.0, 708.0, 709.0, 710.0, 709.0, 709.0, 708.0, 708.0, 707.0, 708.0, 708.0],
      "WindowWidth": [1545.0, 1539.0, 1542.0, 1542.0, 1547.0, 1547.0, 1544.0, 1541.0, 1538.0, 1537.0, 1534.0, 1534.0, 1536.0, 1536.0, 1538.0, 1538.0, 1535.0, 1535.0, 1534.0, 1536.0, 1538.0, 1542.0, 1543.0, 1541.0, 1541.0, 1540.0, 1536.0, 1537.0, 1541.0, 1542.0, 1540.0, 1540.0, 1537.0, 1536.0, 1537.0, 1538.0, 1538.0, 1538.0, 1538.0, 1536.0, 1538.0, 1538.0, 1541.0, 1540.0, 1539.0, 1538.0, 1538.0, 1537.0, 1536.0, 1537.0, 1538.0, 1536.0, 1537.0, 1535.0, 1534.0, 1536.0, 1538.0, 1541.0, 1540.0, 1542.0, 1538.0, 1537.0, 1533.0, 1535.0, 1536.0, 1537.0, 1538.0, 1536.0, 1534.0, 1535.0, 1538.0, 1537.0, 1537.0, 1539.0, 1536.0, 1537.0, 1535.0, 1536.0, 1536.0, 1537.0, 1537.0, 1539.0, 1540.0, 1539.0, 1537.0, 1535.0, 1538.0, 1539.0, 1539.0, 1537.0, 1538.0, 1538.0, 1537.0, 1536.0, 1536.0, 1540.0, 1541.0, 1540.0, 1539.0, 1539.0, 1544.0, 1542.0, 1542.0, 1540.0, 1539.0, 1537.0, 1535.0, 1534.0, 1533.0, 1538.0, 1539.0, 1541.0, 1542.0, 1540.0, 1537.0, 1536.0, 1538.0, 1541.0, 1540.0, 1543.0, 1543.0, 1544.0, 1543.0, 1544.0, 1541.0, 1542.0, 1541.0, 1543.0, 1545.0, 1547.0, 1545.0, 1544.0, 1543.0, 1544.0, 1544.0, 1542.0, 1542.0, 1541.0, 1542.0, 1540.0, 1540.0, 1539.0, 1541.0, 1542.0, 1544.0, 1544.0, 1546.0, 1543.0, 1540.0, 1541.0, 1541.0, 1543.0, 1540.0, 1543.0, 1545.0, 1549.0, 1550.0, 1548.0, 1547.0, 1544.0, 1544.0, 1542.0, 1545.0, 1544.0]
    },
    "slices": {}
  }
}