{
  "AcquisitionMatrixPE": 64,
  "AcquisitionNumber": 1,
  "AcquisitionTime": "15:30:39.850000",
  "BandwidthPerPixelPhaseEncode": 33.967,
  "BaseResolution": 64,
  "CoilCombinationMethod": "Sum of Squares",
  "CoilString": "C:HEA;HEP",
  "ConversionSoftware": "dcm2niix",
  "ConversionSoftwareVersion": "v1.0.20220720",
  "DerivedVendorReportedEchoSpacing": 0.000460005,
  "DeviceSerialNumber": "35193",
  "DwellTime": 3.1e-06,
  "EchoTime": 0.03,
  "EffectiveEchoSpacing": 0.000460005,
  "FlipAngle": 90,
  "HeudiconvVersion": "1.1.6",
  "ImageOrientationPatientDICOM": [1, 0, 0, 0, 1, 0],
  "ImageOrientationText": "Tra",
  "ImageType": [
    "ORIGINAL",
    "PRIMARY",
    "M",
    "ND",
    "MOSAIC"
],
  "ImagingFrequency": 123.254,
  "InPlanePhaseEncodingDirectionDICOM": "COL",
  "InstitutionAddress": "Xinjiekouwai Street No 19,Beijing,Haidian District,CN,100875",
  "InstitutionName": "BNU MRI Center",
  "InstitutionalDepartmentName": "Department",
  "MRAcquisitionType": "2D",
  "MagneticFieldStrength": 3,
  "Manufacturer": "Siemens",
  "ManufacturersModelName": "TrioTim",
  "MatrixCoilMode": "SENSE",
  "Modality": "MR",
  "NonlinearGradientCorrection": false,
  "PartialFourier": 1,
  "PatientPosition": "HFS",
  "PercentPhaseFOV": 100,
  "PercentSampling": 100,
  "PhaseEncodingDirection": "j-",
  "PhaseEncodingSteps": 64,
  "PhaseResolution": 1,
  "PixelBandwidth": 2520,
  "ProcedureStepDescription": "BNU_cst_2015^Guo.TaoMei",
  "ProtocolName": "ge_func_3x3x4_164",
  "PulseSequenceDetails": "%SiemensSeq%\\ep2d_bold",
  "ReceiveCoilName": "HeadMatrix",
  "ReconMatrixPE": 64,
  "RepetitionTime": 2,
  "SAR": 0.11652,
  "ScanOptions": "FS",
  "ScanningSequence": "EP",
  "SequenceName": "*epfid2d1_64",
  "SequenceVariant": "SK",
  "SeriesDescription": "ge_func_3x3x4_164",
  "SeriesNumber": 2,
  "ShimSetting": [-4469, -19260, -9809, 746, 12, -327, 19, -198],
  "SliceThickness": 4,
  "SliceTiming": [0, 1.035, 0.06, 1.095, 0.1225, 1.155, 0.1825, 1.2175, 0.2425, 1.2775, 0.305, 1.3375, 0.365, 1.4, 0.425, 1.46, 0.4875, 1.52, 0.5475, 1.5825, 0.6075, 1.6425, 0.67, 1.7025, 0.73, 1.765, 0.79, 1.825, 0.8525, 1.885, 0.9125, 1.9475, 0.9725],
  "SoftwareVersions": "syngo MR B17",
  "SpacingBetweenSlices": 4.6,
  "StationName": "MRC35193",
  "TaskName": "LanguageControl",
  "TotalReadoutTime": 0.0289803,
  "TxRefAmp": 350.575,
  "dcmmeta_affine": [
    [-3.125, 0.0, 0.0, 105.39759063720703],
    [0.0, 3.125, 0.0, -83.38102722167969],
    [0.0, 0.0, 4.599999904632568, -97.2144546508789],
    [0.0, 0.0, 0.0, 1.0]
],
  "dcmmeta_reorient_transform": [
    [0.0, -1.0, 0.0, 63.0],
    [1.0, 0.0, 0.0, 0.0],
    [0.0, 0.0, 1.0, 0.0],
    [0.0, 0.0, 0.0, 1.0]
],
  "dcmmeta_shape": [64, 64, 33, 164],
  "dcmmeta_slice_dim": 2,
  "dcmmeta_version": 0.6,
  "global": {
    "const": {
      "AcquisitionMatrix": [64, 0, 0, 64],
      "AngioFlag": "N",
      "BitsAllocated": 16,
      "BitsStored": 12,
      "Columns": 384,
      "EchoNumbers": 1,
      "EchoTime": 30.0,
      "EchoTrainLength": 1,
      "FlipAngle": 90.0,
      "HighBit": 11,
      "ImageOrientationPatient": [1.0, 0.0, 0.0, 0.0, 1.0, 0.0],
      "ImagePositionPatient": [-605.39759016037, -613.49397563934, -97.214454650879],
      "ImageType": [
        "ORIGINAL",
        "PRIMARY",
        "M",
        "ND",
        "MOSAIC"
],
      "ImagedNucleus": "1H",
      "ImagingFrequency": 123.253786,
      "InPlanePhaseEncodingDirection": "COL",
      "MRAcquisitionType": "2D",
      "MagneticFieldStrength": 3.0,
      "Manufacturer": "SIEMENS",
      "ManufacturerModelName": "TrioTim",
      "Modality": "MR",
      "NumberOfAverages": 1.0,
      "NumberOfPhaseEncodingSteps": 64,
      "PercentPhaseFieldOfView": 100.0,
      "PercentSampling": 100.0,
      "PerformedProcedureStepStartTime": "152848.921000",
      "PhotometricInterpretation": "MONOCHROME2",
      "PixelBandwidth": 2520.0,
      "PixelRepresentation": 0,
      "PixelSpacing": [3.125, 3.125],
      "ProtocolName": "ge_func_3x3x4_164",
      "RepetitionTime": 2000.0,
      "Rows": 384,
      "SAR": 0.11651973026138,
      "SamplesPerPixel": 1,
      "ScanOptions": "FS",
      "ScanningSequence": "EP",
      "SequenceName": "*epfid2d1_64",
      "SequenceVariant": "SK",
      "SeriesDescription": "ge_func_3x3x4_164",
      "SeriesNumber": 2,
      "SeriesTime": "153129.406000",
      "SliceLocation": -97.214454650879,
      "SliceThickness": 4.0,
      "SmallestImagePixelValue": 0,
      "SoftwareVersions": "syngo MR B17",
      "SpacingBetweenSlices": 4.5999999046326,
      "SpecificCharacterSet": "ISO_IR 100",
      "StudyID": "1",
      "StudyTime": "152848.843000",
      "TransmitCoilName": "Body",
      "VariableFlipAngleFlag": "N",
      "WindowCenterWidthExplanation": "Algo1",
      "dBdt": 0.0},
    "slices": {}
  },
  "time": {
    "samples": {
      "AcquisitionNumber": [1, 2, 3, 4, 5, 6, 7, 8, 9, 10, 11, 12, 13, 14, 15, 16, 17, 18, 19, 20, 21, 22, 23, 24, 25, 26, 27, 28, 29, 30, 31, 32, 33, 34, 35, 36, 37, 38, 39, 40, 41, 42, 43, 44, 45, 46, 47, 48, 49, 50, 51, 52, 53, 54, 55, 56, 57, 58, 59, 60, 61, 62, 63, 64, 65, 66, 67, 68, 69, 70, 71, 72, 73, 74, 75, 76, 77, 78, 79, 80, 81, 82, 83, 84, 85, 86, 87, 88, 89, 90, 91, 92, 93, 94, 95, 96, 97, 98, 99, 100, 101, 102, 103, 104, 105, 106, 107, 108, 109, 110, 111, 112, 113, 114, 115, 116, 117, 118, 119, 120, 121, 122, 123, 124, 125, 126, 127, 128, 129, 130, 131, 132, 133, 134, 135, 136, 137, 138, 139, 140, 141, 142, 143, 144, 145, 146, 147, 148, 149, 150, 151, 152, 153, 154, 155, 156, 157, 158, 159, 160, 161, 162, 163, 164],
      "AcquisitionTime": ["153039.850000", "153041.857500", "153043.865000", "153045.875000", "153047.882500", "153049.890000", "153051.897500", "153053.905000", "153055.915000", "153057.922500", "153059.930000", "153101.937500", "153103.945000", "153105.955000", "153107.962500", "153109.970000", "153111.977500", "153113.985000", "153115.995000", "153118.002500", "153120.010000", "153122.017500", "153124.027500", "153126.035000", "153128.042500", "153130.050000", "153132.057500", "153134.067500", "153136.075000", "153138.082500", "153140.090000", "153142.097500", "153144.107500", "153146.115000", "153148.122500", "153150.130000", "153152.140000", "153154.147500", "153156.155000", "153158.162500", "153200.170000", "153202.180000", "153204.187500", "153206.195000", "153208.202500", "153210.210000", "153212.220000", "153214.227500", "153216.235000", "153218.242500", "153220.252500", "153222.260000", "153224.267500", "153226.275000", "153228.282500", "153230.292500", "153232.300000", "153234.307500", "153236.315000", "153238.322500", "153240.332500", "153242.340000", "153244.347500", "153246.355000", "153248.365000", "153250.372500", "153252.380000", "153254.387500", "153256.395000", "153258.405000", "153300.412500", "153302.420000", "153304.427500", "153306.435000", "153308.445000", "153310.452500", "153312.460000", "153314.467500", "153316.475000", "153318.485000", "153320.492500", "153322.500000", "153324.507500", "153326.517500", "153328.525000", "153330.532500", "153332.540000", "153334.547500", "153336.557500", "153338.565000", "153340.572500", "153342.580000", "153344.587500", "153346.597500", "153348.605000", "153350.612500", "153352.620000", "153354.630000", "153356.637500", "153358.645000", "153400.652500", "153402.660000", "153404.670000", "153406.677500", "153408.685000", "153410.692500", "153412.700000", "153414.710000", "153416.717500", "153418.725000", "153420.732500", "153422.742500", "153424.750000", "153426.757500", "153428.765000", "153430.772500", "153432.782500", "153434.790000", "153436.797500", "153438.805000", "153440.812500", "153442.822500", "153444.830000", "153446.837500", "153448.845000", "153450.852500", "153452.862500", "153454.870000", "153456.877500", "153458.885000", "153500.895000", "153502.902500", "153504.910000", "153506.917500", "153508.925000", "153510.935000", "153512.942500", "153514.950000", "153516.957500", "153518.965000", "153520.975000", "153522.982500", "153524.990000", "153526.997500", "153529.007500", "153531.015000", "153533.022500", "153535.030000", "153537.037500", "153539.047500", "153541.055000", "153543.062500", "153545.070000", "153547.077500", "153549.087500", "153551.095000", "153553.102500", "153555.110000", "153557.120000", "153559.127500", "153601.135000", "153603.142500", "153605.150000", "153607.160000"],
      "ContentTime": ["153129.406000", "153129.406000", "153129.406000", "153129.421000", "153129.421000", "153129.421000", "153129.421000", "153129.421000", "153129.421000", "153129.421000", "153129.421000", "153129.437000", "153129.437000", "153129.437000", "153129.437000", "153129.437000", "153129.437000", "153129.437000", "153129.453000", "153129.453000", "153129.453000", "153129.453000", "153129.453000", "153129.468000", "153209.406000", "153209.406000", "153209.406000", "153209.406000", "153209.406000", "153209.421000", "153209.421000", "153209.421000", "153209.421000", "153209.421000", "153209.437000", "153209.437000", "153209.437000", "153209.437000", "153209.437000", "153209.437000", "153209.453000", "153209.453000", "153209.453000", "153209.453000", "153249.406000", "153249.406000", "153249.406000", "153249.406000", "153249.406000", "153249.406000", "153249.406000", "153249.421000", "153249.421000", "153249.421000", "153249.421000", "153249.421000", "153249.437000", "153249.437000", "153249.437000", "153249.437000", "153249.437000", "153249.437000", "153249.437000", "153249.437000", "153329.406000", "153329.406000", "153329.406000", "153329.406000", "153329.406000", "153329.406000", "153329.406000", "153329.421000", "153329.421000", "153329.421000", "153329.421000", "153329.421000", "153329.421000", "153329.437000", "153329.437000", "153329.437000", "153329.437000", "153329.437000", "153329.437000", "153329.437000", "153409.406000", "153409.406000", "153409.406000", "153409.406000", "153409.421000", "153409.421000", "153409.421000", "153409.421000", "153409.421000", "153409.421000", "153409.421000", "153409.421000", "153409.437000", "153409.437000", "153409.437000", "153409.437000", "153409.453000", "153409.453000", "153409.453000", "153409.453000", "153449.406000", "153449.406000", "153449.406000", "153449.406000", "153449.406000", "153449.406000", "153449.406000", "153449.421000", "153449.421000", "153449.421000", "153449.421000", "153449.437000", "153449.437000", "153449.437000", "153449.437000", "153449.437000", "153449.437000", "153449.437000", "153449.437000", "153449.453000", "153529.406000", "153529.406000", "153529.406000", "153529.421000", "153529.421000", "153529.421000", "153529.421000", "153529.421000", "153529.421000", "153529.437000", "153529.437000", "153529.437000", "153529.437000", "153529.453000", "153529.453000", "153529.453000", "153529.453000", "153529.453000", "153529.453000", "153529.453000", "153608.546000", "153608.546000", "153608.546000", "153608.546000", "153608.546000", "153608.546000", "153608.562000", "153608.562000", "153608.562000", "153608.562000", "153608.562000", "153608.562000", "153608.562000", "153608.562000", "153608.578000", "153608.578000", "153608.578000", "153608.578000", "153608.593000", "153608.593000"],
      "InstanceCreationTime": ["153129.406000", "153129.406000", "153129.406000", "153129.421000", "153129.421000", "153129.421000", "153129.421000", "153129.421000", "153129.421000", "153129.421000", "153129.421000", "153129.437000", "153129.437000", "153129.437000", "153129.437000", "153129.437000", "153129.437000", "153129.437000", "153129.453000", "153129.453000", "153129.453000", "153129.453000", "153129.453000", "153129.468000", "153209.406000", "153209.406000", "153209.406000", "153209.406000", "153209.406000", "153209.421000", "153209.421000", "153209.421000", "153209.421000", "153209.421000", "153209.437000", "153209.437000", "153209.437000", "153209.437000", "153209.437000", "153209.437000", "153209.453000", "153209.453000", "153209.453000", "153209.453000", "153249.406000", "153249.406000", "153249.406000", "153249.406000", "153249.406000", "153249.406000", "153249.406000", "153249.421000", "153249.421000", "153249.421000", "153249.421000", "153249.421000", "153249.437000", "153249.437000", "153249.437000", "153249.437000", "153249.437000", "153249.437000", "153249.437000", "153249.437000", "153329.406000", "153329.406000", "153329.406000", "153329.406000", "153329.406000", "153329.406000", "153329.406000", "153329.421000", "153329.421000", "153329.421000", "153329.421000", "153329.421000", "153329.421000", "153329.437000", "153329.437000", "153329.437000", "153329.437000", "153329.437000", "153329.437000", "153329.437000", "153409.406000", "153409.406000", "153409.406000", "153409.406000", "153409.421000", "153409.421000", "153409.421000", "153409.421000", "153409.421000", "153409.421000", "153409.421000", "153409.421000", "153409.437000", "153409.437000", "153409.437000", "153409.437000", "153409.453000", "153409.453000", "153409.453000", "153409.453000", "153449.406000", "153449.406000", "153449.406000", "153449.406000", "153449.406000", "153449.406000", "153449.406000", "153449.421000", "153449.421000", "153449.421000", "153449.421000", "153449.437000", "153449.437000", "153449.437000", "153449.437000", "153449.437000", "153449.437000", "153449.437000", "153449.437000", "153449.453000", "153529.406000", "153529.406000", "153529.406000", "153529.421000", "153529.421000", "153529.421000", "153529.421000", "153529.421000", "153529.421000", "153529.437000", "153529.437000", "153529.437000", "153529.437000", "153529.453000", "153529.453000", "153529.453000", "153529.453000", "153529.453000", "153529.453000", "153529.453000", "153608.546000", "153608.546000", "153608.546000", "153608.546000", "153608.546000", "153608.546000", "153608.562000", "153608.562000", "153608.562000", "153608.562000", "153608.562000", "153608.562000", "153608.562000", "153608.562000", "153608.578000", "153608.578000", "153608.578000", "153608.578000", "153608.593000", "153608.593000"],
      "InstanceNumber": [1, 2, 3, 4, 5, 6, 7, 8, 9, 10, 11, 12, 13, 14, 15, 16, 17, 18, 19, 20, 21, 22, 23, 24, 25, 26, 27, 28, 29, 30, 31, 32, 33, 34, 35, 36, 37, 38, 39, 40, 41, 42, 43, 44, 45, 46, 47, 48, 49, 50, 51, 52, 53, 54, 55, 56, 57, 58, 59, 60, 61, 62, 63, 64, 65, 66, 67, 68, 69, 70, 71, 72, 73, 74, 75, 76, 77, 78, 79, 80, 81, 82, 83, 84, 85, 86, 87, 88, 89, 90, 91, 92, 93, 94, 95, 96, 97, 98, 99, 100, 101, 102, 103, 104, 105, 106, 107, 108, 109, 110, 111, 112, 113, 114, 115, 116, 117, 118, 119, 120, 121, 122, 123, 124, 125, 126, 127, 128, 129, 130, 131, 132, 133, 134, 135, 136, 137, 138, 139, 140, 141, 142, 143, 144, 145, 146, 147, 148, 149, 150, 151, 152, 153, 154, 155, 156, 157, 158, 159, 160, 161, 162, 163, 164],
      "LargestImagePixelValue": [2021, 1957, 1885, 1975, 1917, 1893, 1963, 1877, 1946, 1883, 1960, 1972, 1918, 1930, 1906, 1939, 1979, 1917, 1944, 1892, 1950, 1927, 1932, 1927, 1894, 1943, 1908, 1833, 1876, 1967, 1853, 1896, 1887, 1900, 1881, 1849, 1890, 1912, 1884, 1862, 1850, 1901, 1968, 1895, 1940, 1873, 1873, 1954, 1899, 1880, 1942, 1925, 1904, 1920, 1901, 1905, 1895, 1911, 1898, 1976, 1883, 1938, 1874, 1895, 1893, 1909, 1937, 1871, 1973, 1860, 1923, 1875, 1909, 1856, 1921, 1942, 1868, 1910, 1889, 1914, 1913, 1925, 1961, 1903, 1880, 1912, 1895, 1885, 1915, 1904, 1881, 1927, 1894, 1883, 1877, 1852, 1941, 1892, 1899, 1902, 1864, 1942, 1871, 1916, 1904, 1899, 1906, 1911, 1915, 1927, 1925, 1944, 1884, 1901, 1876, 1897, 1890, 1907, 1911, 1895, 1925, 1872, 1861, 1911, 1905, 1867, 1913, 1895, 1893, 1864, 1896, 1886, 1886, 1876, 1922, 1887, 1942, 1881, 1891, 1890, 1900, 1907, 1850, 1889, 1926, 1876, 1916, 1854, 1934, 1887, 1853, 1848, 1877, 1935, 1908, 1873, 1943, 1880, 1882, 1908, 1900, 1892, 1902, 1882],
      "WindowCenter": [729.0, 729.0, 731.0, 731.0, 731.0, 728.0, 729.0, 727.0, 727.0, 726.0, 726.0, 726.0, 726.0, 728.0, 727.0, 728.0, 728.0, 727.0, 727.0, 727.0, 727.0, 728.0, 729.0, 729.0, 728.0, 728.0, 727.0, 726.0, 729.0, 729.0, 729.0, 729.0, 729.0, 728.0, 727.0, 728.0, 728.0, 729.0, 729.0, 729.0, 728.0, 727.0, 728.0, 727.0, 729.0, 727.0, 728.0, 729.0, 727.0, 728.0, 727.0, 727.0, 728.0, 728.0, 729.0, 729.0, 729.0, 727.0, 728.0, 729.0, 727.0, 728.0, 727.0, 727.0, 727.0, 726.0, 727.0, 726.0, 728.0, 727.0, 729.0, 728.0, 728.0, 728.0, 726.0, 727.0, 726.0, 727.0, 727.0, 728.0, 729.0, 728.0, 729.0, 727.0, 727.0, 727.0, 726.0, 726.0, 726.0, 727.0, 727.0, 727.0, 727.0, 726.0, 726.0, 726.0, 727.0, 728.0, 727.0, 727.0, 727.0, 727.0, 727.0, 728.0, 728.0, 728.0, 728.0, 728.0, 727.0, 728.0, 727.0, 728.0, 727.0, 728.0, 727.0, 728.0, 728.0, 728.0, 729.0, 728.0, 729.0, 728.0, 729.0, 729.0, 727.0, 727.0, 727.0, 727.0, 727.0, 727.0, 728.0, 728.0, 727.0, 728.0, 728.0, 728.0, 729.0, 729.0, 729.0, 729.0, 727.0, 728.0, 727.0, 727.0, 728.0, 728.0, 729.0, 728.0, 728.0, 728.0, 729.0, 729.0, 729.0, 730.0, 728.0, 727.0, 727.0, 727.0, 726.0, 727.0, 727.0, 727.0, 726.0, 726.0],
      "WindowWidth": [1590.0, 1588.0, 1594.0, 1596.0, 1594.0, 1586.0, 1588.0, 1582.0, 1582.0, 1579.0, 1580.0, 1580.0, 1581.0, 1584.0, 1583.0, 1586.0, 1586.0, 1583.0, 1584.0, 1582.0, 1584.0, 1584.0, 1589.0, 1589.0, 1587.0, 1586.0, 1584.0, 1582.0, 1589.0, 1588.0, 1587.0, 1589.0, 1587.0, 1585.0, 1582.0, 1585.0, 1585.0, 1588.0, 1589.0, 1588.0, 1585.0, 1584.0, 1586.0, 1584.0, 1588.0, 1584.0, 1585.0, 1588.0, 1584.0, 1585.0, 1582.0, 1584.0, 1584.0, 1586.0, 1588.0, 1589.0, 1589.0, 1584.0, 1586.0, 1589.0, 1583.0, 1586.0, 1581.0, 1583.0, 1582.0, 1579.0, 1582.0, 1581.0, 1586.0, 1584.0, 1588.0, 1584.0, 1586.0, 1584.0, 1580.0, 1582.0, 1579.0, 1584.0, 1583.0, 1586.0, 1589.0, 1586.0, 1589.0, 1582.0, 1583.0, 1582.0, 1581.0, 1581.0, 1582.0, 1584.0, 1582.0, 1583.0, 1581.0, 1580.0, 1580.0, 1581.0, 1583.0, 1584.0, 1582.0, 1583.0, 1583.0, 1585.0, 1583.0, 1586.0, 1584.0, 1587.0, 1585.0, 1585.0, 1584.0, 1586.0, 1584.0, 1585.0, 1584.0, 1586.0, 1583.0, 1585.0, 1586.0, 1585.0, 1587.0, 1584.0, 1588.0, 1585.0, 1588.0, 1588.0, 1584.0, 1581.0, 1584.0, 1583.0, 1584.0, 1584.0, 1585.0, 1585.0, 1583.0, 1586.0, 1587.0, 1587.0, 1587.0, 1588.0, 1588.0, 1588.0, 1584.0, 1585.0, 1583.0, 1583.0, 1585.0, 1586.0, 1588.0, 1584.0, 1586.0, 1585.0, 1587.0, 1588.0, 1589.0, 1591.0, 1586.0, 1582.0, 1583.0, 1582.0, 1581.0, 1584.0, 1583.0, 1582.0, 1581.0, 1580.0]
    },
    "slices": {}
  }
}