{
  "AcquisitionMatrixPE": 64,
  "AcquisitionNumber": 1,
  "AcquisitionTime": "10:05:20.795000",
  "BandwidthPerPixelPhaseEncode": 33.967,
  "BaseResolution": 64,
  "CoilCombinationMethod": "Sum of Squares",
  "CoilString": "C:HEA;HEP",
  "ConversionSoftware": "dcm2niix",
  "ConversionSoftwareVersion": "v1.0.20220720",
  "DerivedVendorReportedEchoSpacing": 0.000460005,
  "DeviceSerialNumber": "35193",
  "DwellTime": 3.1e-06,
  "EchoTime": 0.03,
  "EffectiveEchoSpacing": 0.000460005,
  "FlipAngle": 90,
  "HeudiconvVersion": "1.1.6",
  "ImageOrientationPatientDICOM": [0.999781, -1e-16, 0.0209424, 1e-16, 1, 0],
  "ImageOrientationText": "Tra>Sag(1.2)",
  "ImageType": [
    "ORIGINAL",
    "PRIMARY",
    "M",
    "ND",
    "MOSAIC"
],
  "ImagingFrequency": 123.254,
  "InPlanePhaseEncodingDirectionDICOM": "COL",
  "InstitutionAddress": "Xinjiekouwai Street No 19,Beijing,Haidian District,CN,100875",
  "InstitutionName": "BNU MRI Center",
  "InstitutionalDepartmentName": "Department",
  "MRAcquisitionType": "2D",
  "MagneticFieldStrength": 3,
  "Manufacturer": "Siemens",
  "ManufacturersModelName": "TrioTim",
  "MatrixCoilMode": "SENSE",
  "Modality": "MR",
  "NonlinearGradientCorrection": false,
  "PartialFourier": 1,
  "PatientPosition": "HFS",
  "PercentPhaseFOV": 100,
  "PercentSampling": 100,
  "PhaseEncodingDirection": "j-",
  "PhaseEncodingSteps": 64,
  "PhaseResolution": 1,
  "PixelBandwidth": 2520,
  "ProcedureStepDescription": "BNU_cst_2015^Guo.TaoMei",
  "ProtocolName": "ge_func_3x3x4_164",
  "PulseSequenceDetails": "%SiemensSeq%\\ep2d_bold",
  "ReceiveCoilName": "HeadMatrix",
  "ReconMatrixPE": 64,
  "RepetitionTime": 2,
  "SAR": 0.157153,
  "ScanOptions": "FS",
  "ScanningSequence": "EP",
  "SequenceName": "*epfid2d1_64",
  "SequenceVariant": "SK",
  "SeriesDescription": "ge_func_3x3x4_164",
  "SeriesNumber": 4,
  "ShimSetting": [-4490, -19516, -9815, 1023, -110, -623, -151, -83],
  "SliceThickness": 4,
  "SliceTiming": [0, 1.035, 0.06, 1.095, 0.1225, 1.155, 0.1825, 1.2175, 0.2425, 1.2775, 0.305, 1.3375, 0.365, 1.4, 0.425, 1.46, 0.4875, 1.52, 0.5475, 1.5825, 0.6075, 1.6425, 0.67, 1.7025, 0.73, 1.765, 0.79, 1.825, 0.8525, 1.885, 0.9125, 1.9475, 0.9725],
  "SoftwareVersions": "syngo MR B17",
  "SpacingBetweenSlices": 4.6,
  "StationName": "MRC35193",
  "TaskName": "CognitiveControl",
  "TotalReadoutTime": 0.0289803,
  "TxRefAmp": 355.801,
  "dcmmeta_affine": [
    [-3.124314546585083, 3.124999945161469e-16, 0.09633512794971466, 102.48490142822266],
    [3.124999945161469e-16, 3.125, -9.633512504276296e-18, -75.95933532714844],
    [0.06544505804777145, 0.0, 4.5989909172058105, -59.485328674316406],
    [0.0, 0.0, 0.0, 1.0]
],
  "dcmmeta_reorient_transform": [
    [0.0, -1.0, 0.0, 63.0],
    [1.0, 0.0, 0.0, 0.0],
    [0.0, 0.0, 1.0, 0.0],
    [0.0, 0.0, 0.0, 1.0]
],
  "dcmmeta_shape": [64, 64, 33, 164],
  "dcmmeta_slice_dim": 2,
  "dcmmeta_version": 0.6,
  "global": {
    "const": {
      "AcquisitionMatrix": [64, 0, 0, 64],
      "AngioFlag": "N",
      "BitsAllocated": 16,
      "BitsStored": 12,
      "Columns": 384,
      "EchoNumbers": 1,
      "EchoTime": 30.0,
      "EchoTrainLength": 1,
      "FlipAngle": 90.0,
      "HighBit": 11,
      "ImageOrientationPatient": [0.9997806834792, -1e-16, 0.02094241967531, 1e-16, 1.0, 0.0],
      "ImagePositionPatient": [-602.37524077981, -620.9156627655, -69.956538383555],
      "ImageType": [
        "ORIGINAL",
        "PRIMARY",
        "M",
        "ND",
        "MOSAIC"
],
      "ImagedNucleus": "1H",
      "ImagingFrequency": 123.253625,
      "InPlanePhaseEncodingDirection": "COL",
      "MRAcquisitionType": "2D",
      "MagneticFieldStrength": 3.0,
      "Manufacturer": "SIEMENS",
      "ManufacturerModelName": "TrioTim",
      "Modality": "MR",
      "NumberOfAverages": 1.0,
      "NumberOfPhaseEncodingSteps": 64,
      "PercentPhaseFieldOfView": 100.0,
      "PercentSampling": 100.0,
      "PerformedProcedureStepStartTime": "094844.171000",
      "PhotometricInterpretation": "MONOCHROME2",
      "PixelBandwidth": 2520.0,
      "PixelRepresentation": 0,
      "PixelSpacing": [3.125, 3.125],
      "ProtocolName": "ge_func_3x3x4_164",
      "RepetitionTime": 2000.0,
      "Rows": 384,
      "SAR": 0.15715282732208,
      "SamplesPerPixel": 1,
      "ScanOptions": "FS",
      "ScanningSequence": "EP",
      "SequenceName": "*epfid2d1_64",
      "SequenceVariant": "SK",
      "SeriesDescription": "ge_func_3x3x4_164",
      "SeriesNumber": 4,
      "SeriesTime": "100612.250000",
      "SliceLocation": -57.326000664523,
      "SliceThickness": 4.0,
      "SmallestImagePixelValue": 0,
      "SoftwareVersions": "syngo MR B17",
      "SpacingBetweenSlices": 4.5999998923808,
      "SpecificCharacterSet": "ISO_IR 100",
      "StudyID": "1",
      "StudyTime": "094841.546000",
      "TransmitCoilName": "Body",
      "VariableFlipAngleFlag": "N",
      "WindowCenterWidthExplanation": "Algo1",
      "dBdt": 0.0},
    "slices": {}
  },
  "time": {
    "samples": {
      "AcquisitionNumber": [1, 2, 3, 4, 5, 6, 7, 8, 9, 10, 11, 12, 13, 14, 15, 16, 17, 18, 19, 20, 21, 22, 23, 24, 25, 26, 27, 28, 29, 30, 31, 32, 33, 34, 35, 36, 37, 38, 39, 40, 41, 42, 43, 44, 45, 46, 47, 48, 49, 50, 51, 52, 53, 54, 55, 56, 57, 58, 59, 60, 61, 62, 63, 64, 65, 66, 67, 68, 69, 70, 71, 72, 73, 74, 75, 76, 77, 78, 79, 80, 81, 82, 83, 84, 85, 86, 87, 88, 89, 90, 91, 92, 93, 94, 95, 96, 97, 98, 99, 100, 101, 102, 103, 104, 105, 106, 107, 108, 109, 110, 111, 112, 113, 114, 115, 116, 117, 118, 119, 120, 121, 122, 123, 124, 125, 126, 127, 128, 129, 130, 131, 132, 133, 134, 135, 136, 137, 138, 139, 140, 141, 142, 143, 144, 145, 146, 147, 148, 149, 150, 151, 152, 153, 154, 155, 156, 157, 158, 159, 160, 161, 162, 163, 164],
      "AcquisitionTime": ["100520.795000", "100522.802500", "100524.810000", "100526.820000", "100528.827500", "100530.835000", "100532.842500", "100534.850000", "100536.860000", "100538.867500", "100540.875000", "100542.882500", "100544.892500", "100546.900000", "100548.907500", "100550.915000", "100552.922500", "100554.932500", "100556.940000", "100558.947500", "100600.955000", "100602.962500", "100604.972500", "100606.980000", "100608.987500", "100610.995000", "100613.005000", "100615.012500", "100617.020000", "100619.027500", "100621.035000", "100623.045000", "100625.052500", "100627.060000", "100629.067500", "100631.075000", "100633.085000", "100635.092500", "100637.100000", "100639.107500", "100641.117500", "100643.125000", "100645.132500", "100647.140000", "100649.147500", "100651.157500", "100653.165000", "100655.172500", "100657.180000", "100659.187500", "100701.197500", "100703.205000", "100705.212500", "100707.220000", "100709.227500", "100711.237500", "100713.245000", "100715.252500", "100717.260000", "100719.270000", "100721.277500", "100723.285000", "100725.292500", "100727.300000", "100729.310000", "100731.317500", "100733.325000", "100735.332500", "100737.340000", "100739.350000", "100741.357500", "100743.365000", "100745.372500", "100747.382500", "100749.390000", "100751.397500", "100753.405000", "100755.412500", "100757.422500", "100759.430000", "100801.437500", "100803.445000", "100805.452500", "100807.462500", "100809.470000", "100811.477500", "100813.485000", "100815.495000", "100817.502500", "100819.510000", "100821.517500", "100823.525000", "100825.535000", "100827.542500", "100829.550000", "100831.557500", "100833.565000", "100835.575000", "100837.582500", "100839.590000", "100841.597500", "100843.605000", "100845.615000", "100847.622500", "100849.630000", "100851.637500", "100853.647500", "100855.655000", "100857.662500", "100859.670000", "100901.677500", "100903.687500", "100905.695000", "100907.702500", "100909.710000", "100911.717500", "100913.727500", "100915.735000", "100917.742500", "100919.750000", "100921.760000", "100923.767500", "100925.775000", "100927.782500", "100929.790000", "100931.800000", "100933.807500", "100935.815000", "100937.822500", "100939.830000", "100941.840000", "100943.847500", "100945.855000", "100947.862500", "100949.872500", "100951.880000", "100953.887500", "100955.895000", "100957.902500", "100959.912500", "101001.920000", "101003.927500", "101005.935000", "101007.942500", "101009.952500", "101011.960000", "101013.967500", "101015.975000", "101017.982500", "101019.992500", "101022.000000", "101024.007500", "101026.015000", "101028.025000", "101030.032500", "101032.040000", "101034.047500", "101036.055000", "101038.065000", "101040.072500", "101042.080000", "101044.087500", "101046.095000", "101048.105000"],
      "ContentTime": ["100612.250000", "100612.250000", "100612.250000", "100612.265000", "100612.265000", "100612.265000", "100612.265000", "100612.265000", "100612.265000", "100612.281000", "100612.281000", "100612.281000", "100612.281000", "100612.281000", "100612.281000", "100612.296000", "100612.296000", "100612.296000", "100612.296000", "100612.296000", "100612.296000", "100612.296000", "100612.312000", "100612.312000", "100612.312000", "100652.250000", "100652.250000", "100652.250000", "100652.250000", "100652.250000", "100652.250000", "100652.265000", "100652.265000", "100652.265000", "100652.265000", "100652.265000", "100652.265000", "100652.265000", "100652.265000", "100652.281000", "100652.281000", "100652.281000", "100652.281000", "100652.281000", "100652.281000", "100732.250000", "100732.250000", "100732.250000", "100732.250000", "100732.250000", "100732.250000", "100732.250000", "100732.265000", "100732.265000", "100732.265000", "100732.265000", "100732.265000", "100732.265000", "100732.265000", "100732.265000", "100732.281000", "100732.281000", "100732.281000", "100732.281000", "100732.281000", "100752.250000", "100752.250000", "100752.250000", "100752.250000", "100752.250000", "100752.265000", "100752.265000", "100752.265000", "100752.265000", "100752.265000", "100832.250000", "100832.250000", "100832.250000", "100832.250000", "100832.250000", "100832.250000", "100832.265000", "100832.265000", "100832.265000", "100832.265000", "100832.265000", "100832.265000", "100832.281000", "100832.281000", "100832.281000", "100832.281000", "100832.281000", "100832.281000", "100832.281000", "100832.281000", "100912.250000", "100912.250000", "100912.250000", "100912.250000", "100912.250000", "100912.250000", "100912.250000", "100912.265000", "100912.265000", "100912.265000", "100912.265000", "100912.265000", "100912.265000", "100912.265000", "100912.265000", "100912.281000", "100912.281000", "100912.281000", "100912.281000", "100912.281000", "100952.250000", "100952.250000", "100952.250000", "100952.250000", "100952.250000", "100952.250000", "100952.250000", "100952.265000", "100952.265000", "100952.265000", "100952.265000", "100952.265000", "100952.265000", "100952.265000", "100952.281000", "100952.281000", "100952.281000", "100952.281000", "100952.281000", "100952.281000", "101032.250000", "101032.250000", "101032.250000", "101032.250000", "101032.250000", "101032.250000", "101032.250000", "101032.265000", "101032.265000", "101032.265000", "101032.265000", "101032.265000", "101032.265000", "101032.281000", "101032.281000", "101032.281000", "101032.281000", "101032.281000", "101032.281000", "101032.281000", "101048.796000", "101048.796000", "101048.796000", "101048.796000", "101048.796000", "101048.796000", "101048.796000", "101048.812000", "101048.812000"],
      "InstanceCreationTime": ["100612.250000", "100612.250000", "100612.250000", "100612.265000", "100612.265000", "100612.265000", "100612.265000", "100612.265000", "100612.265000", "100612.281000", "100612.281000", "100612.281000", "100612.281000", "100612.281000", "100612.281000", "100612.296000", "100612.296000", "100612.296000", "100612.296000", "100612.296000", "100612.296000", "100612.296000", "100612.312000", "100612.312000", "100612.312000", "100652.250000", "100652.250000", "100652.250000", "100652.250000", "100652.250000", "100652.250000", "100652.265000", "100652.265000", "100652.265000", "100652.265000", "100652.265000", "100652.265000", "100652.265000", "100652.265000", "100652.281000", "100652.281000", "100652.281000", "100652.281000", "100652.281000", "100652.281000", "100732.250000", "100732.250000", "100732.250000", "100732.250000", "100732.250000", "100732.250000", "100732.250000", "100732.265000", "100732.265000", "100732.265000", "100732.265000", "100732.265000", "100732.265000", "100732.265000", "100732.265000", "100732.281000", "100732.281000", "100732.281000", "100732.281000", "100732.281000", "100752.250000", "100752.250000", "100752.250000", "100752.250000", "100752.250000", "100752.265000", "100752.265000", "100752.265000", "100752.265000", "100752.265000", "100832.250000", "100832.250000", "100832.250000", "100832.250000", "100832.250000", "100832.250000", "100832.265000", "100832.265000", "100832.265000", "100832.265000", "100832.265000", "100832.265000", "100832.281000", "100832.281000", "100832.281000", "100832.281000", "100832.281000", "100832.281000", "100832.281000", "100832.281000", "100912.250000", "100912.250000", "100912.250000", "100912.250000", "100912.250000", "100912.250000", "100912.250000", "100912.265000", "100912.265000", "100912.265000", "100912.265000", "100912.265000", "100912.265000", "100912.265000", "100912.265000", "100912.281000", "100912.281000", "100912.281000", "100912.281000", "100912.281000", "100952.250000", "100952.250000", "100952.250000", "100952.250000", "100952.250000", "100952.250000", "100952.250000", "100952.265000", "100952.265000", "100952.265000", "100952.265000", "100952.265000", "100952.265000", "100952.265000", "100952.281000", "100952.281000", "100952.281000", "100952.281000", "100952.281000", "100952.281000", "101032.250000", "101032.250000", "101032.250000", "101032.250000", "101032.250000", "101032.250000", "101032.250000", "101032.265000", "101032.265000", "101032.265000", "101032.265000", "101032.265000", "101032.265000", "101032.281000", "101032.281000", "101032.281000", "101032.281000", "101032.281000", "101032.281000", "101032.281000", "101048.796000", "101048.796000", "101048.796000", "101048.796000", "101048.796000", "101048.796000", "101048.796000", "101048.812000", "101048.812000"],
      "InstanceNumber": [1, 2, 3, 4, 5, 6, 7, 8, 9, 10, 11, 12, 13, 14, 15, 16, 17, 18, 19, 20, 21, 22, 23, 24, 25, 26, 27, 28, 29, 30, 31, 32, 33, 34, 35, 36, 37, 38, 39, 40, 41, 42, 43, 44, 45, 46, 47, 48, 49, 50, 51, 52, 53, 54, 55, 56, 57, 58, 59, 60, 61, 62, 63, 64, 65, 66, 67, 68, 69, 70, 71, 72, 73, 74, 75, 76, 77, 78, 79, 80, 81, 82, 83, 84, 85, 86, 87, 88, 89, 90, 91, 92, 93, 94, 95, 96, 97, 98, 99, 100, 101, 102, 103, 104, 105, 106, 107, 108, 109, 110, 111, 112, 113, 114, 115, 116, 117, 118, 119, 120, 121, 122, 123, 124, 125, 126, 127, 128, 129, 130, 131, 132, 133, 134, 135, 136, 137, 138, 139, 140, 141, 142, 143, 144, 145, 146, 147, 148, 149, 150, 151, 152, 153, 154, 155, 156, 157, 158, 159, 160, 161, 162, 163, 164],
      "LargestImagePixelValue": [1672, 1576, 1552, 1533, 1514, 1518, 1516, 1522, 1530, 1518, 1509, 1524, 1539, 1545, 1521, 1517, 1518, 1529, 1530, 1531, 1592, 1518, 1517, 1521, 1524, 1508, 1528, 1522, 1532, 1559, 1536, 1521, 1519, 1502, 1518, 1539, 1558, 1505, 1512, 1542, 1547, 1517, 1517, 1521, 1537, 1534, 1559, 1549, 1540, 1569, 1538, 1539, 1528, 1568, 1568, 1685, 1532, 1515, 1527, 1544, 1530, 1524, 1554, 1533, 1524, 1563, 1565, 1534, 1543, 1554, 1548, 1557, 1564, 1534, 1553, 1567, 1533, 1539, 1549, 1504, 1538, 1564, 1551, 1535, 1566, 1521, 1859, 1509, 1530, 1539, 1513, 1543, 1538, 1557, 1602, 1573, 1560, 1543, 1573, 1557, 1537, 1510, 1555, 1531, 1506, 1532, 1548, 1537, 1656, 1532, 1551, 1548, 1560, 1556, 1542, 1615, 1552, 1578, 1574, 1581, 1619, 1600, 1550, 1596, 1556, 1528, 1563, 1587, 1580, 1552, 1571, 1551, 1571, 1550, 1578, 1563, 1560, 1554, 1549, 1553, 1566, 1591, 1551, 1550, 1611, 1550, 1539, 1549, 1550, 1553, 1550, 1557, 1552, 1550, 1559, 1621, 1573, 1573, 1551, 1540, 1589, 1562, 1557, 1556],
      "WindowCenter": [712.0, 709.0, 709.0, 709.0, 709.0, 709.0, 709.0, 709.0, 709.0, 709.0, 710.0, 709.0, 709.0, 710.0, 710.0, 710.0, 711.0, 710.0, 710.0, 709.0, 709.0, 708.0, 708.0, 708.0, 709.0, 709.0, 709.0, 709.0, 710.0, 711.0, 710.0, 710.0, 710.0, 711.0, 711.0, 710.0, 710.0, 709.0, 710.0, 710.0, 710.0, 709.0, 710.0, 710.0, 710.0, 711.0, 711.0, 711.0, 711.0, 711.0, 711.0, 712.0, 711.0, 712.0, 711.0, 711.0, 710.0, 709.0, 709.0, 709.0, 709.0, 709.0, 710.0, 710.0, 711.0, 711.0, 711.0, 711.0, 711.0, 711.0, 711.0, 711.0, 711.0, 711.0, 711.0, 711.0, 710.0, 709.0, 709.0, 709.0, 710.0, 711.0, 710.0, 710.0, 710.0, 708.0, 710.0, 707.0, 708.0, 708.0, 707.0, 709.0, 710.0, 711.0, 711.0, 711.0, 710.0, 709.0, 709.0, 709.0, 709.0, 708.0, 709.0, 708.0, 708.0, 709.0, 709.0, 709.0, 710.0, 709.0, 711.0, 711.0, 711.0, 711.0, 710.0, 712.0, 712.0, 713.0, 712.0, 712.0, 711.0, 710.0, 709.0, 710.0, 710.0, 709.0, 710.0, 710.0, 710.0, 710.0, 712.0, 712.0, 712.0, 711.0, 710.0, 709.0, 709.0, 710.0, 710.0, 710.0, 711.0, 712.0, 711.0, 712.0, 712.0, 712.0, 712.0, 712.0, 712.0, 712.0, 712.0, 712.0, 712.0, 713.0, 713.0, 713.0, 712.0, 712.0, 713.0, 712.0, 713.0, 713.0, 713.0, 712.0],
      "WindowWidth": [1545.0, 1538.0, 1537.0, 1537.0, 1538.0, 1538.0, 1538.0, 1537.0, 1537.0, 1538.0, 1538.0, 1538.0, 1538.0, 1539.0, 1538.0, 1540.0, 1541.0, 1540.0, 1539.0, 1536.0, 1536.0, 1534.0, 1535.0, 1535.0, 1536.0, 1535.0, 1536.0, 1538.0, 1540.0, 1541.0, 1540.0, 1540.0, 1540.0, 1541.0, 1541.0, 1540.0, 1540.0, 1537.0, 1538.0, 1539.0, 1539.0, 1538.0, 1538.0, 1538.0, 1539.0, 1541.0, 1542.0, 1543.0, 1541.0, 1541.0, 1542.0, 1544.0, 1543.0, 1543.0, 1542.0, 1543.0, 1538.0, 1537.0, 1537.0, 1537.0, 1537.0, 1537.0, 1540.0, 1539.0, 1541.0, 1542.0, 1543.0, 1541.0, 1542.0, 1542.0, 1543.0, 1543.0, 1543.0, 1542.0, 1541.0, 1541.0, 1538.0, 1537.0, 1536.0, 1537.0, 1539.0, 1541.0, 1540.0, 1539.0, 1537.0, 1535.0, 1539.0, 1531.0, 1533.0, 1532.0, 1531.0, 1535.0, 1539.0, 1540.0, 1541.0, 1541.0, 1538.0, 1537.0, 1537.0, 1537.0, 1535.0, 1535.0, 1535.0, 1533.0, 1534.0, 1537.0, 1537.0, 1537.0, 1540.0, 1538.0, 1541.0, 1541.0, 1541.0, 1540.0, 1540.0, 1544.0, 1545.0, 1546.0, 1545.0, 1543.0, 1541.0, 1538.0, 1536.0, 1538.0, 1538.0, 1536.0, 1538.0, 1539.0, 1540.0, 1540.0, 1544.0, 1544.0, 1544.0, 1541.0, 1538.0, 1537.0, 1538.0, 1538.0, 1538.0, 1540.0, 1542.0, 1544.0, 1543.0, 1544.0, 1545.0, 1544.0, 1544.0, 1544.0, 1544.0, 1544.0, 1544.0, 1545.0, 1545.0, 1547.0, 1546.0, 1546.0, 1545.0, 1545.0, 1546.0, 1546.0, 1547.0, 1547.0, 1546.0, 1544.0]
    },
    "slices": {}
  }
}