{
  "AcquisitionMatrixPE": 64,
  "AcquisitionNumber": 1,
  "AcquisitionTime": "16:21:45.312500",
  "BandwidthPerPixelPhaseEncode": 33.967,
  "BaseResolution": 64,
  "CoilCombinationMethod": "Sum of Squares",
  "CoilString": "C:HEA;HEP",
  "ConversionSoftware": "dcm2niix",
  "ConversionSoftwareVersion": "v1.0.20220720",
  "DerivedVendorReportedEchoSpacing": 0.000460005,
  "DeviceSerialNumber": "35193",
  "DwellTime": 3.1e-06,
  "EchoTime": 0.03,
  "EffectiveEchoSpacing": 0.000460005,
  "FlipAngle": 90,
  "HeudiconvVersion": "1.1.6",
  "ImageOrientationPatientDICOM": [1, 0, 0, 0, 1, 0],
  "ImageOrientationText": "Tra",
  "ImageType": [
    "ORIGINAL",
    "PRIMARY",
    "M",
    "ND",
    "MOSAIC"
],
  "ImagingFrequency": 123.254,
  "InPlanePhaseEncodingDirectionDICOM": "COL",
  "InstitutionAddress": "Xinjiekouwai Street No 19,Beijing,Haidian District,CN,100875",
  "InstitutionName": "BNU MRI Center",
  "InstitutionalDepartmentName": "Department",
  "MRAcquisitionType": "2D",
  "MagneticFieldStrength": 3,
  "Manufacturer": "Siemens",
  "ManufacturersModelName": "TrioTim",
  "MatrixCoilMode": "SENSE",
  "Modality": "MR",
  "NonlinearGradientCorrection": false,
  "PartialFourier": 1,
  "PatientPosition": "HFS",
  "PercentPhaseFOV": 100,
  "PercentSampling": 100,
  "PhaseEncodingDirection": "j-",
  "PhaseEncodingSteps": 64,
  "PhaseResolution": 1,
  "PixelBandwidth": 2520,
  "ProcedureStepDescription": "BNU_cst_2015^Guo.TaoMei",
  "ProtocolName": "ge_func_3x3x4_164",
  "PulseSequenceDetails": "%SiemensSeq%\\ep2d_bold",
  "ReceiveCoilName": "HeadMatrix",
  "ReconMatrixPE": 64,
  "RepetitionTime": 2,
  "SAR": 0.168808,
  "ScanOptions": "FS",
  "ScanningSequence": "EP",
  "SequenceName": "*epfid2d1_64",
  "SequenceVariant": "SK",
  "SeriesDescription": "ge_func_3x3x4_164",
  "SeriesNumber": 4,
  "ShimSetting": [-4511, -19512, -9824, 1093, 19, -503, 251, 76],
  "SliceThickness": 4,
  "SliceTiming": [0, 1.0325, 0.06, 1.095, 0.12, 1.155, 0.1825, 1.215, 0.2425, 1.2775, 0.3025, 1.3375, 0.365, 1.3975, 0.425, 1.46, 0.485, 1.52, 0.5475, 1.58, 0.6075, 1.6425, 0.6675, 1.7025, 0.73, 1.7625, 0.79, 1.825, 0.85, 1.885, 0.9125, 1.945, 0.9725],
  "SoftwareVersions": "syngo MR B17",
  "SpacingBetweenSlices": 4.6,
  "StationName": "MRC35193",
  "TaskName": "CognitiveControl",
  "TotalReadoutTime": 0.0289803,
  "TxRefAmp": 323.362,
  "dcmmeta_affine": [
    [-3.125, 0.0, 0.0, 103.37349700927734],
    [0.0, 3.125, 0.0, -90.8027114868164],
    [0.0, 0.0, 4.599999904632568, -47.96144485473633],
    [0.0, 0.0, 0.0, 1.0]
],
  "dcmmeta_reorient_transform": [
    [0.0, -1.0, 0.0, 63.0],
    [1.0, 0.0, 0.0, 0.0],
    [0.0, 0.0, 1.0, 0.0],
    [0.0, 0.0, 0.0, 1.0]
],
  "dcmmeta_shape": [64, 64, 33, 164],
  "dcmmeta_slice_dim": 2,
  "dcmmeta_version": 0.6,
  "global": {
    "const": {
      "AcquisitionMatrix": [64, 0, 0, 64],
      "AngioFlag": "N",
      "BitsAllocated": 16,
      "BitsStored": 12,
      "Columns": 384,
      "EchoNumbers": 1,
      "EchoTime": 30.0,
      "EchoTrainLength": 1,
      "FlipAngle": 90.0,
      "HighBit": 11,
      "ImageOrientationPatient": [1.0, 0.0, 0.0, 0.0, 1.0, 0.0],
      "ImagePositionPatient": [-603.37349390984, -606.07228899002, -47.961444854736],
      "ImageType": [
        "ORIGINAL",
        "PRIMARY",
        "M",
        "ND",
        "MOSAIC"
],
      "ImagedNucleus": "1H",
      "ImagingFrequency": 123.253711,
      "InPlanePhaseEncodingDirection": "COL",
      "MRAcquisitionType": "2D",
      "MagneticFieldStrength": 3.0,
      "Manufacturer": "SIEMENS",
      "ManufacturerModelName": "TrioTim",
      "Modality": "MR",
      "NumberOfAverages": 1.0,
      "NumberOfPhaseEncodingSteps": 64,
      "PercentPhaseFieldOfView": 100.0,
      "PercentSampling": 100.0,
      "PerformedProcedureStepStartTime": "160624.156000",
      "PhotometricInterpretation": "MONOCHROME2",
      "PixelBandwidth": 2520.0,
      "PixelRepresentation": 0,
      "PixelSpacing": [3.125, 3.125],
      "ProtocolName": "ge_func_3x3x4_164",
      "RepetitionTime": 2000.0,
      "Rows": 384,
      "SAR": 0.16880794895011,
      "SamplesPerPixel": 1,
      "ScanOptions": "FS",
      "ScanningSequence": "EP",
      "SequenceName": "*epfid2d1_64",
      "SequenceVariant": "SK",
      "SeriesDescription": "ge_func_3x3x4_164",
      "SeriesNumber": 4,
      "SeriesTime": "162229.390000",
      "SliceLocation": -47.961444854736,
      "SliceThickness": 4.0,
      "SmallestImagePixelValue": 0,
      "SoftwareVersions": "syngo MR B17",
      "SpacingBetweenSlices": 4.6000000238419,
      "SpecificCharacterSet": "ISO_IR 100",
      "StudyID": "1",
      "StudyTime": "160624.078000",
      "TransmitCoilName": "Body",
      "VariableFlipAngleFlag": "N",
      "WindowCenterWidthExplanation": "Algo1",
      "dBdt": 0.0},
    "slices": {}
  },
  "time": {
    "samples": {
      "AcquisitionNumber": [1, 2, 3, 4, 5, 6, 7, 8, 9, 10, 11, 12, 13, 14, 15, 16, 17, 18, 19, 20, 21, 22, 23, 24, 25, 26, 27, 28, 29, 30, 31, 32, 33, 34, 35, 36, 37, 38, 39, 40, 41, 42, 43, 44, 45, 46, 47, 48, 49, 50, 51, 52, 53, 54, 55, 56, 57, 58, 59, 60, 61, 62, 63, 64, 65, 66, 67, 68, 69, 70, 71, 72, 73, 74, 75, 76, 77, 78, 79, 80, 81, 82, 83, 84, 85, 86, 87, 88, 89, 90, 91, 92, 93, 94, 95, 96, 97, 98, 99, 100, 101, 102, 103, 104, 105, 106, 107, 108, 109, 110, 111, 112, 113, 114, 115, 116, 117, 118, 119, 120, 121, 122, 123, 124, 125, 126, 127, 128, 129, 130, 131, 132, 133, 134, 135, 136, 137, 138, 139, 140, 141, 142, 143, 144, 145, 146, 147, 148, 149, 150, 151, 152, 153, 154, 155, 156, 157, 158, 159, 160, 161, 162, 163, 164],
      "AcquisitionTime": ["162145.312500", "162147.320000", "162149.327500", "162151.335000", "162153.345000", "162155.352500", "162157.360000", "162159.367500", "162201.375000", "162203.385000", "162205.392500", "162207.400000", "162209.407500", "162211.415000", "162213.425000", "162215.432500", "162217.440000", "162219.447500", "162221.457500", "162223.465000", "162225.472500", "162227.480000", "162229.487500", "162231.497500", "162233.505000", "162235.512500", "162237.520000", "162239.527500", "162241.537500", "162243.545000", "162245.552500", "162247.560000", "162249.570000", "162251.577500", "162253.585000", "162255.592500", "162257.600000", "162259.610000", "162301.617500", "162303.625000", "162305.632500", "162307.640000", "162309.650000", "162311.657500", "162313.665000", "162315.672500", "162317.682500", "162319.690000", "162321.697500", "162323.705000", "162325.712500", "162327.722500", "162329.730000", "162331.737500", "162333.745000", "162335.752500", "162337.762500", "162339.770000", "162341.777500", "162343.785000", "162345.792500", "162347.802500", "162349.810000", "162351.817500", "162353.825000", "162355.835000", "162357.842500", "162359.850000", "162401.857500", "162403.865000", "162405.875000", "162407.882500", "162409.890000", "162411.897500", "162413.905000", "162415.915000", "162417.922500", "162419.930000", "162421.937500", "162423.947500", "162425.955000", "162427.962500", "162429.970000", "162431.977500", "162433.987500", "162435.995000", "162438.002500", "162440.010000", "162442.017500", "162444.027500", "162446.035000", "162448.042500", "162450.050000", "162452.060000", "162454.067500", "162456.075000", "162458.082500", "162500.090000", "162502.100000", "162504.107500", "162506.115000", "162508.122500", "162510.130000", "162512.140000", "162514.147500", "162516.155000", "162518.162500", "162520.170000", "162522.180000", "162524.187500", "162526.195000", "162528.202500", "162530.212500", "162532.220000", "162534.227500", "162536.235000", "162538.242500", "162540.252500", "162542.260000", "162544.267500", "162546.275000", "162548.282500", "162550.292500", "162552.300000", "162554.307500", "162556.315000", "162558.325000", "162600.332500", "162602.340000", "162604.347500", "162606.355000", "162608.365000", "162610.372500", "162612.380000", "162614.387500", "162616.395000", "162618.405000", "162620.412500", "162622.420000", "162624.427500", "162626.437500", "162628.445000", "162630.452500", "162632.460000", "162634.467500", "162636.477500", "162638.485000", "162640.492500", "162642.500000", "162644.507500", "162646.517500", "162648.525000", "162650.532500", "162652.540000", "162654.550000", "162656.557500", "162658.565000", "162700.572500", "162702.580000", "162704.590000", "162706.597500", "162708.605000", "162710.612500", "162712.620000"],
      "ContentTime": ["162229.390000", "162229.390000", "162229.406000", "162229.406000", "162229.421000", "162229.421000", "162229.421000", "162229.421000", "162229.421000", "162229.421000", "162229.421000", "162229.437000", "162229.437000", "162229.437000", "162229.437000", "162229.437000", "162229.437000", "162229.437000", "162229.437000", "162229.453000", "162229.453000", "162309.390000", "162309.390000", "162309.390000", "162309.390000", "162309.390000", "162309.406000", "162309.406000", "162309.406000", "162309.406000", "162309.421000", "162309.421000", "162309.421000", "162309.421000", "162309.421000", "162309.437000", "162309.437000", "162309.437000", "162309.437000", "162309.437000", "162309.437000", "162349.390000", "162349.390000", "162349.390000", "162349.390000", "162349.390000", "162349.406000", "162349.406000", "162349.406000", "162349.406000", "162349.406000", "162349.406000", "162349.406000", "162349.406000", "162349.421000", "162349.421000", "162349.421000", "162349.421000", "162349.421000", "162349.421000", "162349.421000", "162429.390000", "162429.390000", "162429.390000", "162429.390000", "162429.406000", "162429.421000", "162429.421000", "162429.421000", "162429.421000", "162429.421000", "162429.421000", "162429.421000", "162429.421000", "162429.437000", "162429.437000", "162429.437000", "162429.437000", "162429.437000", "162429.437000", "162429.437000", "162509.390000", "162509.390000", "162509.390000", "162509.406000", "162509.406000", "162509.406000", "162509.406000", "162509.421000", "162509.421000", "162509.421000", "162509.421000", "162509.421000", "162509.421000", "162509.421000", "162509.437000", "162509.437000", "162509.437000", "162509.437000", "162509.437000", "162509.453000", "162549.390000", "162549.390000", "162549.390000", "162549.390000", "162549.406000", "162549.406000", "162549.406000", "162549.406000", "162549.406000", "162549.421000", "162549.421000", "162549.421000", "162549.421000", "162549.421000", "162549.421000", "162549.421000", "162549.421000", "162549.437000", "162549.437000", "162549.437000", "162629.390000", "162629.390000", "162629.390000", "162629.390000", "162629.390000", "162629.390000", "162629.406000", "162629.406000", "162629.406000", "162629.406000", "162629.421000", "162629.421000", "162629.421000", "162629.421000", "162629.421000", "162629.421000", "162629.421000", "162629.437000", "162629.437000", "162629.437000", "162709.390000", "162709.390000", "162709.390000", "162709.390000", "162709.390000", "162709.406000", "162709.406000", "162709.406000", "162709.406000", "162709.406000", "162709.406000", "162709.406000", "162709.406000", "162709.421000", "162709.421000", "162709.421000", "162709.421000", "162709.421000", "162709.421000", "162709.421000", "162714.140000", "162714.140000", "162714.140000"],
      "InstanceCreationTime": ["162229.390000", "162229.390000", "162229.406000", "162229.406000", "162229.421000", "162229.421000", "162229.421000", "162229.421000", "162229.421000", "162229.421000", "162229.421000", "162229.437000", "162229.437000", "162229.437000", "162229.437000", "162229.437000", "162229.437000", "162229.437000", "162229.437000", "162229.453000", "162229.453000", "162309.390000", "162309.390000", "162309.390000", "162309.390000", "162309.390000", "162309.406000", "162309.406000", "162309.406000", "162309.406000", "162309.421000", "162309.421000", "162309.421000", "162309.421000", "162309.421000", "162309.437000", "162309.437000", "162309.437000", "162309.437000", "162309.437000", "162309.437000", "162349.390000", "162349.390000", "162349.390000", "162349.390000", "162349.390000", "162349.406000", "162349.406000", "162349.406000", "162349.406000", "162349.406000", "162349.406000", "162349.406000", "162349.406000", "162349.421000", "162349.421000", "162349.421000", "162349.421000", "162349.421000", "162349.421000", "162349.421000", "162429.390000", "162429.390000", "162429.390000", "162429.390000", "162429.406000", "162429.421000", "162429.421000", "162429.421000", "162429.421000", "162429.421000", "162429.421000", "162429.421000", "162429.421000", "162429.437000", "162429.437000", "162429.437000", "162429.437000", "162429.437000", "162429.437000", "162429.437000", "162509.390000", "162509.390000", "162509.390000", "162509.406000", "162509.406000", "162509.406000", "162509.406000", "162509.421000", "162509.421000", "162509.421000", "162509.421000", "162509.421000", "162509.421000", "162509.421000", "162509.437000", "162509.437000", "162509.437000", "162509.437000", "162509.437000", "162509.453000", "162549.390000", "162549.390000", "162549.390000", "162549.390000", "162549.406000", "162549.406000", "162549.406000", "162549.406000", "162549.406000", "162549.421000", "162549.421000", "162549.421000", "162549.421000", "162549.421000", "162549.421000", "162549.421000", "162549.421000", "162549.437000", "162549.437000", "162549.437000", "162629.390000", "162629.390000", "162629.390000", "162629.390000", "162629.390000", "162629.390000", "162629.406000", "162629.406000", "162629.406000", "162629.406000", "162629.421000", "162629.421000", "162629.421000", "162629.421000", "162629.421000", "162629.421000", "162629.421000", "162629.437000", "162629.437000", "162629.437000", "162709.390000", "162709.390000", "162709.390000", "162709.390000", "162709.390000", "162709.406000", "162709.406000", "162709.406000", "162709.406000", "162709.406000", "162709.406000", "162709.406000", "162709.406000", "162709.421000", "162709.421000", "162709.421000", "162709.421000", "162709.421000", "162709.421000", "162709.421000", "162714.140000", "162714.140000", "162714.140000"],
      "InstanceNumber": [1, 2, 3, 4, 5, 6, 7, 8, 9, 10, 11, 12, 13, 14, 15, 16, 17, 18, 19, 20, 21, 22, 23, 24, 25, 26, 27, 28, 29, 30, 31, 32, 33, 34, 35, 36, 37, 38, 39, 40, 41, 42, 43, 44, 45, 46, 47, 48, 49, 50, 51, 52, 53, 54, 55, 56, 57, 58, 59, 60, 61, 62, 63, 64, 65, 66, 67, 68, 69, 70, 71, 72, 73, 74, 75, 76, 77, 78, 79, 80, 81, 82, 83, 84, 85, 86, 87, 88, 89, 90, 91, 92, 93, 94, 95, 96, 97, 98, 99, 100, 101, 102, 103, 104, 105, 106, 107, 108, 109, 110, 111, 112, 113, 114, 115, 116, 117, 118, 119, 120, 121, 122, 123, 124, 125, 126, 127, 128, 129, 130, 131, 132, 133, 134, 135, 136, 137, 138, 139, 140, 141, 142, 143, 144, 145, 146, 147, 148, 149, 150, 151, 152, 153, 154, 155, 156, 157, 158, 159, 160, 161, 162, 163, 164],
      "LargestImagePixelValue": [1618, 1489, 1487, 1473, 1469, 1485, 1447, 1450, 1466, 1445, 1453, 1466, 1463, 1488, 1465, 1467, 1447, 1464, 1464, 1460, 1476, 1464, 1488, 1468, 1462, 1467, 1476, 1495, 1471, 1473, 1467, 1467, 1485, 1436, 1453, 1455, 1470, 1478, 1488, 1480, 1489, 1507, 1478, 1491, 1467, 1475, 1473, 1467, 1469, 1461, 1482, 1472, 1464, 1486, 1481, 1471, 1474, 1472, 1484, 1466, 1468, 1480, 1476, 1483, 1469, 1508, 1478, 1488, 1455, 1458, 1478, 1463, 1485, 1467, 1479, 1486, 1473, 1469, 1486, 1483, 1483, 1466, 1495, 1466, 1488, 1481, 1498, 1493, 1469, 1484, 1483, 1477, 1483, 1479, 1495, 1499, 1489, 1502, 1470, 1489, 1490, 1474, 1481, 1471, 1497, 1473, 1494, 1494, 1465, 1490, 1470, 1478, 1481, 1494, 1474, 1491, 1472, 1484, 1481, 1462, 1474, 1500, 1496, 1483, 1491, 1510, 1497, 1490, 1495, 1480, 1486, 1489, 1483, 1484, 1466, 1483, 1502, 1480, 1494, 1499, 1478, 1485, 1488, 1491, 1502, 1465, 1477, 1509, 1485, 1494, 1510, 1496, 1489, 1483, 1489, 1491, 1480, 1480, 1493, 1481, 1502, 1498, 1484, 1496],
      "WindowCenter": [691.0, 689.0, 689.0, 689.0, 688.0, 687.0, 686.0, 686.0, 686.0, 687.0, 688.0, 689.0, 689.0, 689.0, 689.0, 688.0, 688.0, 688.0, 688.0, 688.0, 688.0, 688.0, 689.0, 688.0, 688.0, 688.0, 689.0, 689.0, 689.0, 688.0, 689.0, 689.0, 688.0, 688.0, 688.0, 690.0, 691.0, 690.0, 689.0, 689.0, 688.0, 689.0, 689.0, 690.0, 690.0, 690.0, 690.0, 689.0, 689.0, 689.0, 690.0, 689.0, 689.0, 689.0, 690.0, 689.0, 689.0, 689.0, 689.0, 689.0, 689.0, 689.0, 689.0, 689.0, 689.0, 690.0, 690.0, 689.0, 688.0, 688.0, 689.0, 689.0, 689.0, 689.0, 689.0, 689.0, 689.0, 689.0, 690.0, 689.0, 689.0, 688.0, 689.0, 689.0, 690.0, 690.0, 690.0, 689.0, 689.0, 689.0, 689.0, 689.0, 688.0, 689.0, 690.0, 691.0, 690.0, 689.0, 688.0, 689.0, 689.0, 689.0, 690.0, 690.0, 689.0, 689.0, 689.0, 689.0, 689.0, 689.0, 689.0, 690.0, 690.0, 690.0, 691.0, 690.0, 689.0, 688.0, 688.0, 689.0, 690.0, 690.0, 689.0, 689.0, 689.0, 689.0, 690.0, 689.0, 689.0, 690.0, 691.0, 691.0, 689.0, 688.0, 689.0, 690.0, 691.0, 691.0, 691.0, 690.0, 690.0, 689.0, 689.0, 689.0, 689.0, 689.0, 689.0, 689.0, 689.0, 689.0, 689.0, 689.0, 689.0, 689.0, 690.0, 689.0, 690.0, 691.0, 691.0, 690.0, 689.0, 688.0, 689.0, 690.0],
      "WindowWidth": [1487.0, 1481.0, 1482.0, 1481.0, 1478.0, 1477.0, 1475.0, 1475.0, 1476.0, 1477.0, 1479.0, 1482.0, 1482.0, 1482.0, 1482.0, 1480.0, 1479.0, 1479.0, 1480.0, 1481.0, 1481.0, 1481.0, 1481.0, 1480.0, 1478.0, 1481.0, 1483.0, 1482.0, 1482.0, 1481.0, 1482.0, 1481.0, 1480.0, 1479.0, 1481.0, 1484.0, 1487.0, 1484.0, 1482.0, 1481.0, 1481.0, 1481.0, 1483.0, 1485.0, 1484.0, 1484.0, 1484.0, 1482.0, 1481.0, 1483.0, 1484.0, 1483.0, 1481.0, 1482.0, 1484.0, 1483.0, 1482.0, 1482.0, 1482.0, 1481.0, 1483.0, 1482.0, 1481.0, 1482.0, 1481.0, 1485.0, 1483.0, 1481.0, 1479.0, 1480.0, 1482.0, 1482.0, 1483.0, 1482.0, 1481.0, 1481.0, 1482.0, 1482.0, 1484.0, 1483.0, 1481.0, 1479.0, 1482.0, 1482.0, 1484.0, 1485.0, 1483.0, 1482.0, 1482.0, 1482.0, 1482.0, 1481.0, 1480.0, 1482.0, 1486.0, 1486.0, 1484.0, 1482.0, 1480.0, 1481.0, 1482.0, 1482.0, 1485.0, 1483.0, 1482.0, 1481.0, 1481.0, 1481.0, 1481.0, 1483.0, 1483.0, 1483.0, 1483.0, 1485.0, 1486.0, 1485.0, 1483.0, 1480.0, 1480.0, 1482.0, 1485.0, 1483.0, 1483.0, 1482.0, 1482.0, 1483.0, 1484.0, 1483.0, 1483.0, 1484.0, 1488.0, 1486.0, 1482.0, 1480.0, 1483.0, 1484.0, 1487.0, 1487.0, 1487.0, 1486.0, 1484.0, 1482.0, 1482.0, 1481.0, 1482.0, 1481.0, 1481.0, 1482.0, 1482.0, 1482.0, 1483.0, 1482.0, 1483.0, 1482.0, 1483.0, 1483.0, 1483.0, 1487.0, 1487.0, 1484.0, 1481.0, 1480.0, 1481.0, 1484.0]
    },
    "slices": {}
  }
}