{
  "AcquisitionMatrixPE": 64,
  "AcquisitionNumber": 1,
  "AcquisitionTime": "16:14:59.322500",
  "BandwidthPerPixelPhaseEncode": 33.967,
  "BaseResolution": 64,
  "CoilCombinationMethod": "Sum of Squares",
  "CoilString": "C:HEA;HEP",
  "ConversionSoftware": "dcm2niix",
  "ConversionSoftwareVersion": "v1.0.20220720",
  "DerivedVendorReportedEchoSpacing": 0.000460005,
  "DeviceSerialNumber": "35193",
  "DwellTime": 3.1e-06,
  "EchoTime": 0.03,
  "EffectiveEchoSpacing": 0.000460005,
  "FlipAngle": 90,
  "HeudiconvVersion": "1.1.6",
  "ImageOrientationPatientDICOM": [1, 0, 0, 0, 1, 0],
  "ImageOrientationText": "Tra",
  "ImageType": [
    "ORIGINAL",
    "PRIMARY",
    "M",
    "ND",
    "MOSAIC"
],
  "ImagingFrequency": 123.254,
  "InPlanePhaseEncodingDirectionDICOM": "COL",
  "InstitutionAddress": "Xinjiekouwai Street No 19,Beijing,Haidian District,CN,100875",
  "InstitutionName": "BNU MRI Center",
  "InstitutionalDepartmentName": "Department",
  "MRAcquisitionType": "2D",
  "MagneticFieldStrength": 3,
  "Manufacturer": "Siemens",
  "ManufacturersModelName": "TrioTim",
  "MatrixCoilMode": "SENSE",
  "Modality": "MR",
  "NonlinearGradientCorrection": false,
  "PartialFourier": 1,
  "PatientPosition": "HFS",
  "PercentPhaseFOV": 100,
  "PercentSampling": 100,
  "PhaseEncodingDirection": "j-",
  "PhaseEncodingSteps": 64,
  "PhaseResolution": 1,
  "PixelBandwidth": 2520,
  "ProcedureStepDescription": "BNU_cst_2015^Guo.TaoMei",
  "ProtocolName": "ge_func_3x3x4_164",
  "PulseSequenceDetails": "%SiemensSeq%\\ep2d_bold",
  "ReceiveCoilName": "HeadMatrix",
  "ReconMatrixPE": 64,
  "RepetitionTime": 2,
  "SAR": 0.168808,
  "ScanOptions": "FS",
  "ScanningSequence": "EP",
  "SequenceName": "*epfid2d1_64",
  "SequenceVariant": "SK",
  "SeriesDescription": "ge_func_3x3x4_164",
  "SeriesNumber": 3,
  "ShimSetting": [-4511, -19512, -9824, 1093, 19, -503, 251, 76],
  "SliceThickness": 4,
  "SliceTiming": [0, 1.0325, 0.06, 1.095, 0.12, 1.155, 0.1825, 1.215, 0.2425, 1.2775, 0.3025, 1.3375, 0.365, 1.3975, 0.425, 1.46, 0.485, 1.52, 0.5475, 1.58, 0.6075, 1.6425, 0.6675, 1.7025, 0.73, 1.7625, 0.79, 1.825, 0.85, 1.885, 0.9125, 1.945, 0.9725],
  "SoftwareVersions": "syngo MR B17",
  "SpacingBetweenSlices": 4.6,
  "StationName": "MRC35193",
  "TaskName": "LanguageControl",
  "TotalReadoutTime": 0.0289803,
  "TxRefAmp": 323.362,
  "dcmmeta_affine": [
    [-3.125, 0.0, 0.0, 103.37349700927734],
    [0.0, 3.125, 0.0, -90.8027114868164],
    [0.0, 0.0, 4.599999904632568, -47.96144485473633],
    [0.0, 0.0, 0.0, 1.0]
],
  "dcmmeta_reorient_transform": [
    [0.0, -1.0, 0.0, 63.0],
    [1.0, 0.0, 0.0, 0.0],
    [0.0, 0.0, 1.0, 0.0],
    [0.0, 0.0, 0.0, 1.0]
],
  "dcmmeta_shape": [64, 64, 33, 164],
  "dcmmeta_slice_dim": 2,
  "dcmmeta_version": 0.6,
  "global": {
    "const": {
      "AcquisitionMatrix": [64, 0, 0, 64],
      "AngioFlag": "N",
      "BitsAllocated": 16,
      "BitsStored": 12,
      "Columns": 384,
      "EchoNumbers": 1,
      "EchoTime": 30.0,
      "EchoTrainLength": 1,
      "FlipAngle": 90.0,
      "HighBit": 11,
      "ImageOrientationPatient": [1.0, 0.0, 0.0, 0.0, 1.0, 0.0],
      "ImagePositionPatient": [-603.37349390984, -606.07228899002, -47.961444854736],
      "ImageType": [
        "ORIGINAL",
        "PRIMARY",
        "M",
        "ND",
        "MOSAIC"
],
      "ImagedNucleus": "1H",
      "ImagingFrequency": 123.253708,
      "InPlanePhaseEncodingDirection": "COL",
      "MRAcquisitionType": "2D",
      "MagneticFieldStrength": 3.0,
      "Manufacturer": "SIEMENS",
      "ManufacturerModelName": "TrioTim",
      "Modality": "MR",
      "NumberOfAverages": 1.0,
      "NumberOfPhaseEncodingSteps": 64,
      "PercentPhaseFieldOfView": 100.0,
      "PercentSampling": 100.0,
      "PerformedProcedureStepStartTime": "160624.156000",
      "PhotometricInterpretation": "MONOCHROME2",
      "PixelBandwidth": 2520.0,
      "PixelRepresentation": 0,
      "PixelSpacing": [3.125, 3.125],
      "ProtocolName": "ge_func_3x3x4_164",
      "RepetitionTime": 2000.0,
      "Rows": 384,
      "SAR": 0.16880794895011,
      "SamplesPerPixel": 1,
      "ScanOptions": "FS",
      "ScanningSequence": "EP",
      "SequenceName": "*epfid2d1_64",
      "SequenceVariant": "SK",
      "SeriesDescription": "ge_func_3x3x4_164",
      "SeriesNumber": 3,
      "SeriesTime": "161548.218000",
      "SliceLocation": -47.961444854736,
      "SliceThickness": 4.0,
      "SmallestImagePixelValue": 0,
      "SoftwareVersions": "syngo MR B17",
      "SpacingBetweenSlices": 4.6000000238419,
      "SpecificCharacterSet": "ISO_IR 100",
      "StudyID": "1",
      "StudyTime": "160624.078000",
      "TransmitCoilName": "Body",
      "VariableFlipAngleFlag": "N",
      "WindowCenterWidthExplanation": "Algo1",
      "dBdt": 0.0},
    "slices": {}
  },
  "time": {
    "samples": {
      "AcquisitionNumber": [1, 2, 3, 4, 5, 6, 7, 8, 9, 10, 11, 12, 13, 14, 15, 16, 17, 18, 19, 20, 21, 22, 23, 24, 25, 26, 27, 28, 29, 30, 31, 32, 33, 34, 35, 36, 37, 38, 39, 40, 41, 42, 43, 44, 45, 46, 47, 48, 49, 50, 51, 52, 53, 54, 55, 56, 57, 58, 59, 60, 61, 62, 63, 64, 65, 66, 67, 68, 69, 70, 71, 72, 73, 74, 75, 76, 77, 78, 79, 80, 81, 82, 83, 84, 85, 86, 87, 88, 89, 90, 91, 92, 93, 94, 95, 96, 97, 98, 99, 100, 101, 102, 103, 104, 105, 106, 107, 108, 109, 110, 111, 112, 113, 114, 115, 116, 117, 118, 119, 120, 121, 122, 123, 124, 125, 126, 127, 128, 129, 130, 131, 132, 133, 134, 135, 136, 137, 138, 139, 140, 141, 142, 143, 144, 145, 146, 147, 148, 149, 150, 151, 152, 153, 154, 155, 156, 157, 158, 159, 160, 161, 162, 163, 164],
      "AcquisitionTime": ["161459.322500", "161501.330000", "161503.337500", "161505.345000", "161507.355000", "161509.362500", "161511.370000", "161513.377500", "161515.385000", "161517.395000", "161519.402500", "161521.410000", "161523.417500", "161525.425000", "161527.435000", "161529.442500", "161531.450000", "161533.457500", "161535.465000", "161537.475000", "161539.482500", "161541.490000", "161543.497500", "161545.507500", "161547.515000", "161549.522500", "161551.530000", "161553.537500", "161555.547500", "161557.555000", "161559.562500", "161601.570000", "161603.577500", "161605.587500", "161607.595000", "161609.602500", "161611.610000", "161613.620000", "161615.627500", "161617.635000", "161619.642500", "161621.650000", "161623.660000", "161625.667500", "161627.675000", "161629.682500", "161631.690000", "161633.700000", "161635.707500", "161637.715000", "161639.722500", "161641.732500", "161643.740000", "161645.747500", "161647.755000", "161649.762500", "161651.772500", "161653.780000", "161655.787500", "161657.795000", "161659.802500", "161701.812500", "161703.820000", "161705.827500", "161707.835000", "161709.842500", "161711.852500", "161713.860000", "161715.867500", "161717.875000", "161719.885000", "161721.892500", "161723.900000", "161725.907500", "161727.915000", "161729.925000", "161731.932500", "161733.940000", "161735.947500", "161737.955000", "161739.965000", "161741.972500", "161743.980000", "161745.987500", "161747.997500", "161750.005000", "161752.012500", "161754.020000", "161756.027500", "161758.037500", "161800.045000", "161802.052500", "161804.060000", "161806.067500", "161808.077500", "161810.085000", "161812.092500", "161814.100000", "161816.110000", "161818.117500", "161820.125000", "161822.132500", "161824.140000", "161826.150000", "161828.157500", "161830.165000", "161832.172500", "161834.180000", "161836.190000", "161838.197500", "161840.205000", "161842.212500", "161844.220000", "161846.230000", "161848.237500", "161850.245000", "161852.252500", "161854.262500", "161856.270000", "161858.277500", "161900.285000", "161902.292500", "161904.302500", "161906.310000", "161908.317500", "161910.325000", "161912.332500", "161914.342500", "161916.350000", "161918.357500", "161920.365000", "161922.375000", "161924.382500", "161926.390000", "161928.397500", "161930.405000", "161932.415000", "161934.422500", "161936.430000", "161938.437500", "161940.445000", "161942.455000", "161944.462500", "161946.470000", "161948.477500", "161950.487500", "161952.495000", "161954.502500", "161956.510000", "161958.517500", "162000.527500", "162002.535000", "162004.542500", "162006.550000", "162008.557500", "162010.567500", "162012.575000", "162014.582500", "162016.590000", "162018.600000", "162020.607500", "162022.615000", "162024.622500", "162026.630000"],
      "ContentTime": ["161548.218000", "161548.218000", "161548.234000", "161548.234000", "161548.234000", "161548.234000", "161548.234000", "161548.234000", "161548.234000", "161548.234000", "161548.250000", "161548.250000", "161548.250000", "161548.250000", "161548.250000", "161548.250000", "161548.250000", "161548.250000", "161548.265000", "161548.265000", "161548.265000", "161548.265000", "161548.281000", "161548.281000", "161628.218000", "161628.218000", "161628.218000", "161628.218000", "161628.218000", "161628.218000", "161628.234000", "161628.234000", "161628.234000", "161628.234000", "161628.234000", "161628.250000", "161628.250000", "161628.250000", "161628.250000", "161628.250000", "161628.250000", "161628.250000", "161628.250000", "161628.250000", "161708.218000", "161708.218000", "161708.218000", "161708.218000", "161708.218000", "161708.218000", "161708.234000", "161708.234000", "161708.234000", "161708.234000", "161708.250000", "161708.250000", "161708.250000", "161708.250000", "161708.250000", "161708.250000", "161708.250000", "161708.250000", "161708.250000", "161708.265000", "161748.218000", "161748.218000", "161748.234000", "161748.234000", "161748.234000", "161748.234000", "161748.234000", "161748.234000", "161748.234000", "161748.234000", "161748.250000", "161748.250000", "161748.250000", "161748.250000", "161748.250000", "161748.250000", "161748.250000", "161748.265000", "161748.265000", "161748.265000", "161828.218000", "161828.218000", "161828.218000", "161828.218000", "161828.234000", "161828.234000", "161828.234000", "161828.234000", "161828.250000", "161828.250000", "161828.250000", "161828.250000", "161828.250000", "161828.250000", "161828.250000", "161828.250000", "161828.265000", "161828.265000", "161828.265000", "161828.265000", "161908.218000", "161908.218000", "161908.218000", "161908.234000", "161908.234000", "161908.234000", "161908.234000", "161908.234000", "161908.250000", "161908.250000", "161908.250000", "161908.250000", "161908.250000", "161908.250000", "161908.250000", "161908.250000", "161908.250000", "161908.265000", "161908.265000", "161908.265000", "161948.218000", "161948.218000", "161948.218000", "161948.234000", "161948.234000", "161948.234000", "161948.250000", "161948.250000", "161948.250000", "161948.250000", "161948.250000", "161948.250000", "161948.250000", "161948.250000", "161948.265000", "161948.265000", "161948.265000", "161948.265000", "161948.265000", "161948.265000", "162027.765000", "162027.781000", "162027.781000", "162027.781000", "162027.781000", "162027.781000", "162027.781000", "162027.781000", "162027.781000", "162027.796000", "162027.796000", "162027.796000", "162027.796000", "162027.796000", "162027.796000", "162027.796000", "162027.796000", "162027.812000", "162027.812000", "162027.812000"],
      "InstanceCreationTime": ["161548.218000", "161548.218000", "161548.234000", "161548.234000", "161548.234000", "161548.234000", "161548.234000", "161548.234000", "161548.234000", "161548.234000", "161548.250000", "161548.250000", "161548.250000", "161548.250000", "161548.250000", "161548.250000", "161548.250000", "161548.250000", "161548.265000", "161548.265000", "161548.265000", "161548.265000", "161548.281000", "161548.281000", "161628.218000", "161628.218000", "161628.218000", "161628.218000", "161628.218000", "161628.218000", "161628.234000", "161628.234000", "161628.234000", "161628.234000", "161628.234000", "161628.250000", "161628.250000", "161628.250000", "161628.250000", "161628.250000", "161628.250000", "161628.250000", "161628.250000", "161628.250000", "161708.218000", "161708.218000", "161708.218000", "161708.218000", "161708.218000", "161708.218000", "161708.234000", "161708.234000", "161708.234000", "161708.234000", "161708.250000", "161708.250000", "161708.250000", "161708.250000", "161708.250000", "161708.250000", "161708.250000", "161708.250000", "161708.250000", "161708.265000", "161748.218000", "161748.218000", "161748.234000", "161748.234000", "161748.234000", "161748.234000", "161748.234000", "161748.234000", "161748.234000", "161748.234000", "161748.250000", "161748.250000", "161748.250000", "161748.250000", "161748.250000", "161748.250000", "161748.250000", "161748.265000", "161748.265000", "161748.265000", "161828.218000", "161828.218000", "161828.218000", "161828.218000", "161828.234000", "161828.234000", "161828.234000", "161828.234000", "161828.250000", "161828.250000", "161828.250000", "161828.250000", "161828.250000", "161828.250000", "161828.250000", "161828.250000", "161828.265000", "161828.265000", "161828.265000", "161828.265000", "161908.218000", "161908.218000", "161908.218000", "161908.234000", "161908.234000", "161908.234000", "161908.234000", "161908.234000", "161908.250000", "161908.250000", "161908.250000", "161908.250000", "161908.250000", "161908.250000", "161908.250000", "161908.250000", "161908.250000", "161908.265000", "161908.265000", "161908.265000", "161948.218000", "161948.218000", "161948.218000", "161948.234000", "161948.234000", "161948.234000", "161948.250000", "161948.250000", "161948.250000", "161948.250000", "161948.250000", "161948.250000", "161948.250000", "161948.250000", "161948.265000", "161948.265000", "161948.265000", "161948.265000", "161948.265000", "161948.265000", "162027.765000", "162027.781000", "162027.781000", "162027.781000", "162027.781000", "162027.781000", "162027.781000", "162027.781000", "162027.781000", "162027.796000", "162027.796000", "162027.796000", "162027.796000", "162027.796000", "162027.796000", "162027.796000", "162027.796000", "162027.812000", "162027.812000", "162027.812000"],
      "InstanceNumber": [1, 2, 3, 4, 5, 6, 7, 8, 9, 10, 11, 12, 13, 14, 15, 16, 17, 18, 19, 20, 21, 22, 23, 24, 25, 26, 27, 28, 29, 30, 31, 32, 33, 34, 35, 36, 37, 38, 39, 40, 41, 42, 43, 44, 45, 46, 47, 48, 49, 50, 51, 52, 53, 54, 55, 56, 57, 58, 59, 60, 61, 62, 63, 64, 65, 66, 67, 68, 69, 70, 71, 72, 73, 74, 75, 76, 77, 78, 79, 80, 81, 82, 83, 84, 85, 86, 87, 88, 89, 90, 91, 92, 93, 94, 95, 96, 97, 98, 99, 100, 101, 102, 103, 104, 105, 106, 107, 108, 109, 110, 111, 112, 113, 114, 115, 116, 117, 118, 119, 120, 121, 122, 123, 124, 125, 126, 127, 128, 129, 130, 131, 132, 133, 134, 135, 136, 137, 138, 139, 140, 141, 142, 143, 144, 145, 146, 147, 148, 149, 150, 151, 152, 153, 154, 155, 156, 157, 158, 159, 160, 161, 162, 163, 164],
      "LargestImagePixelValue": [1502, 1505, 1467, 1470, 1449, 1462, 1443, 1554, 1425, 1440, 1432, 1408, 1422, 1438, 1419, 1428, 1510, 1541, 1434, 1444, 1432, 1435, 1437, 1445, 1439, 1502, 1430, 1423, 1429, 1436, 1625, 1418, 1428, 1430, 1444, 1406, 1440, 1414, 1492, 1464, 1599, 1421, 1445, 1421, 1602, 1425, 1430, 1419, 1423, 1522, 1592, 1443, 1420, 1471, 1419, 1436, 1428, 1405, 1419, 1543, 1416, 1433, 1466, 1577, 1407, 1409, 1402, 1507, 1415, 1405, 1420, 1417, 1420, 1411, 1496, 1448, 1424, 1503, 1446, 1509, 1511, 1420, 1411, 1412, 1429, 1421, 1414, 1506, 1422, 1526, 1430, 1425, 1474, 1429, 1562, 1423, 1427, 1443, 1524, 1430, 1433, 1421, 1422, 1416, 1536, 1471, 1416, 1446, 1421, 1414, 1431, 1433, 1444, 1435, 1435, 1422, 1415, 1433, 1430, 1449, 1438, 1475, 1467, 1421, 1429, 1435, 1421, 1487, 1431, 1448, 1471, 1439, 1443, 1443, 1441, 1458, 1439, 1450, 1565, 1432, 1452, 1422, 1429, 1421, 1533, 1429, 1449, 1437, 1482, 1456, 1464, 1432, 1499, 1444, 1443, 1442, 1427, 1450, 1434, 1447, 1462, 1474, 1465, 1465],
      "WindowCenter": [693.0, 692.0, 690.0, 689.0, 687.0, 687.0, 687.0, 688.0, 687.0, 687.0, 687.0, 687.0, 688.0, 688.0, 688.0, 689.0, 688.0, 687.0, 687.0, 687.0, 688.0, 688.0, 689.0, 689.0, 688.0, 688.0, 687.0, 688.0, 688.0, 688.0, 688.0, 688.0, 688.0, 688.0, 687.0, 687.0, 688.0, 687.0, 688.0, 687.0, 688.0, 688.0, 689.0, 688.0, 689.0, 687.0, 687.0, 688.0, 689.0, 689.0, 690.0, 689.0, 688.0, 688.0, 688.0, 688.0, 689.0, 689.0, 688.0, 688.0, 688.0, 688.0, 687.0, 687.0, 688.0, 688.0, 688.0, 688.0, 687.0, 687.0, 688.0, 688.0, 688.0, 687.0, 689.0, 689.0, 689.0, 690.0, 689.0, 688.0, 688.0, 687.0, 687.0, 688.0, 689.0, 688.0, 689.0, 689.0, 689.0, 689.0, 688.0, 687.0, 688.0, 688.0, 688.0, 687.0, 688.0, 688.0, 688.0, 687.0, 688.0, 688.0, 688.0, 688.0, 688.0, 687.0, 686.0, 688.0, 689.0, 689.0, 689.0, 689.0, 690.0, 689.0, 689.0, 688.0, 688.0, 689.0, 688.0, 689.0, 689.0, 690.0, 689.0, 689.0, 688.0, 688.0, 687.0, 690.0, 690.0, 690.0, 689.0, 689.0, 689.0, 689.0, 689.0, 689.0, 689.0, 689.0, 689.0, 688.0, 689.0, 689.0, 690.0, 689.0, 689.0, 688.0, 689.0, 689.0, 690.0, 689.0, 689.0, 689.0, 690.0, 690.0, 690.0, 690.0, 689.0, 689.0, 689.0, 688.0, 689.0, 689.0, 689.0, 688.0],
      "WindowWidth": [1493.0, 1490.0, 1486.0, 1484.0, 1478.0, 1477.0, 1477.0, 1479.0, 1478.0, 1477.0, 1478.0, 1477.0, 1480.0, 1481.0, 1481.0, 1482.0, 1480.0, 1478.0, 1477.0, 1478.0, 1481.0, 1480.0, 1483.0, 1483.0, 1481.0, 1479.0, 1479.0, 1479.0, 1481.0, 1481.0, 1481.0, 1480.0, 1481.0, 1479.0, 1478.0, 1478.0, 1480.0, 1478.0, 1479.0, 1477.0, 1480.0, 1480.0, 1483.0, 1481.0, 1482.0, 1478.0, 1478.0, 1479.0, 1482.0, 1483.0, 1485.0, 1482.0, 1480.0, 1480.0, 1480.0, 1481.0, 1482.0, 1483.0, 1480.0, 1481.0, 1479.0, 1480.0, 1479.0, 1479.0, 1479.0, 1482.0, 1480.0, 1480.0, 1479.0, 1479.0, 1481.0, 1480.0, 1480.0, 1478.0, 1483.0, 1483.0, 1482.0, 1484.0, 1482.0, 1481.0, 1480.0, 1479.0, 1479.0, 1480.0, 1482.0, 1481.0, 1483.0, 1484.0, 1482.0, 1482.0, 1480.0, 1479.0, 1480.0, 1480.0, 1480.0, 1478.0, 1479.0, 1479.0, 1480.0, 1478.0, 1479.0, 1480.0, 1481.0, 1480.0, 1480.0, 1477.0, 1476.0, 1479.0, 1482.0, 1482.0, 1482.0, 1483.0, 1485.0, 1483.0, 1482.0, 1480.0, 1481.0, 1482.0, 1481.0, 1482.0, 1483.0, 1484.0, 1484.0, 1482.0, 1481.0, 1479.0, 1477.0, 1485.0, 1487.0, 1484.0, 1483.0, 1483.0, 1483.0, 1483.0, 1482.0, 1483.0, 1484.0, 1483.0, 1483.0, 1480.0, 1483.0, 1483.0, 1484.0, 1483.0, 1482.0, 1481.0, 1481.0, 1483.0, 1484.0, 1482.0, 1482.0, 1483.0, 1486.0, 1485.0, 1484.0, 1485.0, 1483.0, 1483.0, 1481.0, 1480.0, 1482.0, 1483.0, 1481.0, 1480.0]
    },
    "slices": {}
  }
}