{
  "AcquisitionMatrixPE": 64,
  "AcquisitionNumber": 1,
  "AcquisitionTime": "11:38:1.942500",
  "BandwidthPerPixelPhaseEncode": 33.967,
  "BaseResolution": 64,
  "CoilCombinationMethod": "Sum of Squares",
  "CoilString": "C:HEA;HEP",
  "ConversionSoftware": "dcm2niix",
  "ConversionSoftwareVersion": "v1.0.20220720",
  "DerivedVendorReportedEchoSpacing": 0.000460005,
  "DeviceSerialNumber": "35193",
  "DwellTime": 3.1e-06,
  "EchoTime": 0.03,
  "EffectiveEchoSpacing": 0.000460005,
  "FlipAngle": 90,
  "HeudiconvVersion": "1.1.6",
  "ImageOrientationPatientDICOM": [0.999781, -0.0209424, 0, 0.0209424, 0.999781, 0],
  "ImageOrientationText": "Tra",
  "ImageType": [
    "ORIGINAL",
    "PRIMARY",
    "M",
    "ND",
    "MOSAIC"
],
  "ImagingFrequency": 123.254,
  "InPlanePhaseEncodingDirectionDICOM": "COL",
  "InstitutionAddress": "Xinjiekouwai Street No 19,Beijing,Haidian District,CN,100875",
  "InstitutionName": "Beijing Normal Universtiy/2773C4/",
  "InstitutionalDepartmentName": "Department",
  "MRAcquisitionType": "2D",
  "MagneticFieldStrength": 3,
  "Manufacturer": "Siemens",
  "ManufacturersModelName": "TrioTim",
  "MatrixCoilMode": "SENSE",
  "Modality": "MR",
  "NonlinearGradientCorrection": false,
  "PartialFourier": 1,
  "PatientPosition": "HFS",
  "PercentPhaseFOV": 100,
  "PercentSampling": 100,
  "PhaseEncodingDirection": "j-",
  "PhaseEncodingSteps": 64,
  "PhaseResolution": 1,
  "PixelBandwidth": 2520,
  "ProcedureStepDescription": "BNU_cst_2015^Guo.TaoMei",
  "ProtocolName": "ge_func_3x3x4_164",
  "PulseSequenceDetails": "%SiemensSeq%\\ep2d_bold",
  "ReceiveCoilName": "HeadMatrix",
  "ReconMatrixPE": 64,
  "RepetitionTime": 2,
  "SAR": 0.129388,
  "ScanOptions": "FS",
  "ScanningSequence": "EP",
  "SequenceName": "*epfid2d1_64",
  "SequenceVariant": "SK",
  "SeriesDescription": "ge_func_3x3x4_164",
  "SeriesNumber": 5,
  "ShimSetting": [-4539, -19437, -9868, 1074, -272, -410, 179, -55],
  "SliceThickness": 4,
  "SliceTiming": [0, 1.0325, 0.06, 1.095, 0.12, 1.155, 0.1825, 1.215, 0.2425, 1.2775, 0.3025, 1.3375, 0.365, 1.3975, 0.425, 1.46, 0.485, 1.52, 0.5475, 1.58, 0.6075, 1.6425, 0.6675, 1.7025, 0.73, 1.7625, 0.79, 1.825, 0.85, 1.885, 0.9125, 1.945, 0.9725],
  "SoftwareVersions": "syngo MR B17",
  "SpacingBetweenSlices": 4.6,
  "StationName": "MRC35193",
  "TaskName": "CognitiveControl",
  "TotalReadoutTime": 0.0289803,
  "TxRefAmp": 337.657,
  "dcmmeta_affine": [
    [-3.124314546585083, 0.0654449388384819, 0.0, 95.92517852783203],
    [0.0654449388384819, 3.124314546585083, 0.0, -89.50221252441406],
    [0.0, 0.0, 4.599999904632568, -58.75662612915039],
    [0.0, 0.0, 0.0, 1.0]
],
  "dcmmeta_reorient_transform": [
    [0.0, -1.0, 0.0, 63.0],
    [1.0, 0.0, 0.0, 0.0],
    [0.0, 0.0, 1.0, 0.0],
    [0.0, 0.0, 0.0, 1.0]
],
  "dcmmeta_shape": [64, 64, 33, 164],
  "dcmmeta_slice_dim": 2,
  "dcmmeta_version": 0.6,
  "global": {
    "const": {
      "AcquisitionMatrix": [64, 0, 0, 64],
      "AngioFlag": "N",
      "BitsAllocated": 16,
      "BitsStored": 12,
      "Columns": 384,
      "EchoNumbers": 1,
      "EchoTime": 30.0,
      "EchoTrainLength": 1,
      "FlipAngle": 90.0,
      "HighBit": 11,
      "ImageOrientationPatient": [0.99978068431574, -0.0209423797393, 0.0, 0.02094237973925, 0.99978068431574, 0.0],
      "ImagePositionPatient": [-610.40974194404, -596.74876540733, -58.75662612915],
      "ImageType": [
        "ORIGINAL",
        "PRIMARY",
        "M",
        "ND",
        "MOSAIC"
],
      "ImagedNucleus": "1H",
      "ImagingFrequency": 123.253689,
      "InPlanePhaseEncodingDirection": "COL",
      "MRAcquisitionType": "2D",
      "MagneticFieldStrength": 3.0,
      "Manufacturer": "SIEMENS",
      "ManufacturerModelName": "TrioTim",
      "Modality": "MR",
      "NumberOfAverages": 1.0,
      "NumberOfPhaseEncodingSteps": 64,
      "PercentPhaseFieldOfView": 100.0,
      "PercentSampling": 100.0,
      "PerformedProcedureStepStartTime": "111554.546000",
      "PhotometricInterpretation": "MONOCHROME2",
      "PixelBandwidth": 2520.0,
      "PixelRepresentation": 0,
      "PixelSpacing": [3.125, 3.125],
      "ProtocolName": "ge_func_3x3x4_164",
      "RepetitionTime": 2000.0,
      "Rows": 384,
      "SAR": 0.1293883005541,
      "SamplesPerPixel": 1,
      "ScanOptions": "FS",
      "ScanningSequence": "EP",
      "SequenceName": "*epfid2d1_64",
      "SequenceVariant": "SK",
      "SeriesDescription": "ge_func_3x3x4_164",
      "SeriesNumber": 5,
      "SeriesTime": "113850.468000",
      "SliceLocation": -58.75662612915,
      "SliceThickness": 4.0,
      "SmallestImagePixelValue": 0,
      "SoftwareVersions": "syngo MR B17",
      "SpacingBetweenSlices": 4.6000000238419,
      "SpecificCharacterSet": "ISO_IR 100",
      "StudyID": "1",
      "StudyTime": "111554.500000",
      "TransmitCoilName": "Body",
      "VariableFlipAngleFlag": "N",
      "WindowCenterWidthExplanation": "Algo1",
      "dBdt": 0.0},
    "slices": {}
  },
  "time": {
    "samples": {
      "AcquisitionNumber": [1, 2, 3, 4, 5, 6, 7, 8, 9, 10, 11, 12, 13, 14, 15, 16, 17, 18, 19, 20, 21, 22, 23, 24, 25, 26, 27, 28, 29, 30, 31, 32, 33, 34, 35, 36, 37, 38, 39, 40, 41, 42, 43, 44, 45, 46, 47, 48, 49, 50, 51, 52, 53, 54, 55, 56, 57, 58, 59, 60, 61, 62, 63, 64, 65, 66, 67, 68, 69, 70, 71, 72, 73, 74, 75, 76, 77, 78, 79, 80, 81, 82, 83, 84, 85, 86, 87, 88, 89, 90, 91, 92, 93, 94, 95, 96, 97, 98, 99, 100, 101, 102, 103, 104, 105, 106, 107, 108, 109, 110, 111, 112, 113, 114, 115, 116, 117, 118, 119, 120, 121, 122, 123, 124, 125, 126, 127, 128, 129, 130, 131, 132, 133, 134, 135, 136, 137, 138, 139, 140, 141, 142, 143, 144, 145, 146, 147, 148, 149, 150, 151, 152, 153, 154, 155, 156, 157, 158, 159, 160, 161, 162, 163, 164],
      "AcquisitionTime": ["113801.942500", "113803.950000", "113805.957500", "113807.965000", "113809.972500", "113811.982500", "113813.990000", "113815.997500", "113818.005000", "113820.012500", "113822.022500", "113824.030000", "113826.037500", "113828.045000", "113830.055000", "113832.062500", "113834.070000", "113836.077500", "113838.085000", "113840.095000", "113842.102500", "113844.110000", "113846.117500", "113848.125000", "113850.135000", "113852.142500", "113854.150000", "113856.157500", "113858.165000", "113900.175000", "113902.182500", "113904.190000", "113906.197500", "113908.207500", "113910.215000", "113912.222500", "113914.230000", "113916.237500", "113918.247500", "113920.255000", "113922.262500", "113924.270000", "113926.277500", "113928.287500", "113930.295000", "113932.302500", "113934.310000", "113936.320000", "113938.327500", "113940.335000", "113942.342500", "113944.350000", "113946.360000", "113948.367500", "113950.375000", "113952.382500", "113954.390000", "113956.400000", "113958.407500", "114000.415000", "114002.422500", "114004.432500", "114006.440000", "114008.447500", "114010.455000", "114012.462500", "114014.472500", "114016.480000", "114018.487500", "114020.495000", "114022.502500", "114024.512500", "114026.520000", "114028.527500", "114030.535000", "114032.542500", "114034.552500", "114036.560000", "114038.567500", "114040.575000", "114042.585000", "114044.592500", "114046.600000", "114048.607500", "114050.615000", "114052.625000", "114054.632500", "114056.640000", "114058.647500", "114100.655000", "114102.665000", "114104.672500", "114106.680000", "114108.687500", "114110.697500", "114112.705000", "114114.712500", "114116.720000", "114118.727500", "114120.737500", "114122.745000", "114124.752500", "114126.760000", "114128.767500", "114130.777500", "114132.785000", "114134.792500", "114136.800000", "114138.810000", "114140.817500", "114142.825000", "114144.832500", "114146.840000", "114148.850000", "114150.857500", "114152.865000", "114154.872500", "114156.880000", "114158.890000", "114200.897500", "114202.905000", "114204.912500", "114206.920000", "114208.930000", "114210.937500", "114212.945000", "114214.952500", "114216.962500", "114218.970000", "114220.977500", "114222.985000", "114224.992500", "114227.002500", "114229.010000", "114231.017500", "114233.025000", "114235.032500", "114237.042500", "114239.050000", "114241.057500", "114243.065000", "114245.075000", "114247.082500", "114249.090000", "114251.097500", "114253.105000", "114255.115000", "114257.122500", "114259.130000", "114301.137500", "114303.145000", "114305.155000", "114307.162500", "114309.170000", "114311.177500", "114313.187500", "114315.195000", "114317.202500", "114319.210000", "114321.217500", "114323.227500", "114325.235000", "114327.242500", "114329.250000"],
      "ContentTime": ["113850.468000", "113850.468000", "113850.468000", "113850.468000", "113850.484000", "113850.484000", "113850.484000", "113850.500000", "113850.500000", "113850.500000", "113850.500000", "113850.500000", "113850.500000", "113850.500000", "113850.500000", "113850.500000", "113850.515000", "113850.515000", "113850.515000", "113850.515000", "113850.515000", "113850.515000", "113850.515000", "113910.468000", "113910.468000", "113910.468000", "113910.468000", "113910.468000", "113910.484000", "113910.484000", "113910.484000", "113910.484000", "113910.484000", "113950.468000", "113950.468000", "113950.468000", "113950.468000", "113950.468000", "113950.468000", "113950.468000", "113950.468000", "113950.484000", "113950.484000", "113950.484000", "113950.484000", "113950.484000", "113950.484000", "113950.484000", "113950.484000", "113950.500000", "113950.500000", "113950.500000", "113950.500000", "114030.468000", "114030.468000", "114030.468000", "114030.484000", "114030.484000", "114030.484000", "114030.484000", "114030.484000", "114030.500000", "114030.500000", "114030.500000", "114030.500000", "114030.500000", "114030.500000", "114030.515000", "114030.515000", "114030.515000", "114030.515000", "114030.515000", "114030.515000", "114110.468000", "114110.468000", "114110.468000", "114110.468000", "114110.468000", "114110.468000", "114110.468000", "114110.468000", "114110.484000", "114110.484000", "114110.484000", "114110.484000", "114110.484000", "114110.484000", "114110.484000", "114110.484000", "114110.500000", "114110.500000", "114110.500000", "114110.500000", "114150.468000", "114150.468000", "114150.468000", "114150.468000", "114150.484000", "114150.484000", "114150.484000", "114150.484000", "114150.500000", "114150.500000", "114150.500000", "114150.500000", "114150.500000", "114150.500000", "114150.500000", "114150.515000", "114150.515000", "114150.515000", "114150.515000", "114150.515000", "114230.468000", "114230.468000", "114230.468000", "114230.468000", "114230.468000", "114230.468000", "114230.468000", "114230.468000", "114230.484000", "114230.484000", "114230.484000", "114230.484000", "114230.484000", "114230.484000", "114230.500000", "114230.500000", "114230.500000", "114230.500000", "114230.500000", "114230.500000", "114310.468000", "114310.468000", "114310.468000", "114310.468000", "114310.468000", "114310.468000", "114310.484000", "114310.484000", "114310.484000", "114310.484000", "114310.484000", "114310.484000", "114310.484000", "114310.484000", "114310.500000", "114310.500000", "114310.500000", "114310.500000", "114310.500000", "114310.500000", "114330.828000", "114330.828000", "114330.828000", "114330.828000", "114330.843000", "114330.843000", "114330.843000", "114330.843000", "114330.843000", "114330.859000", "114330.859000"],
      "InstanceCreationTime": ["113850.468000", "113850.468000", "113850.468000", "113850.468000", "113850.484000", "113850.484000", "113850.484000", "113850.500000", "113850.500000", "113850.500000", "113850.500000", "113850.500000", "113850.500000", "113850.500000", "113850.500000", "113850.500000", "113850.515000", "113850.515000", "113850.515000", "113850.515000", "113850.515000", "113850.515000", "113850.515000", "113910.468000", "113910.468000", "113910.468000", "113910.468000", "113910.468000", "113910.484000", "113910.484000", "113910.484000", "113910.484000", "113910.484000", "113950.468000", "113950.468000", "113950.468000", "113950.468000", "113950.468000", "113950.468000", "113950.468000", "113950.468000", "113950.484000", "113950.484000", "113950.484000", "113950.484000", "113950.484000", "113950.484000", "113950.484000", "113950.484000", "113950.500000", "113950.500000", "113950.500000", "113950.500000", "114030.468000", "114030.468000", "114030.468000", "114030.484000", "114030.484000", "114030.484000", "114030.484000", "114030.484000", "114030.500000", "114030.500000", "114030.500000", "114030.500000", "114030.500000", "114030.500000", "114030.515000", "114030.515000", "114030.515000", "114030.515000", "114030.515000", "114030.515000", "114110.468000", "114110.468000", "114110.468000", "114110.468000", "114110.468000", "114110.468000", "114110.468000", "114110.468000", "114110.484000", "114110.484000", "114110.484000", "114110.484000", "114110.484000", "114110.484000", "114110.484000", "114110.484000", "114110.500000", "114110.500000", "114110.500000", "114110.500000", "114150.468000", "114150.468000", "114150.468000", "114150.468000", "114150.484000", "114150.484000", "114150.484000", "114150.484000", "114150.500000", "114150.500000", "114150.500000", "114150.500000", "114150.500000", "114150.500000", "114150.500000", "114150.515000", "114150.515000", "114150.515000", "114150.515000", "114150.515000", "114230.468000", "114230.468000", "114230.468000", "114230.468000", "114230.468000", "114230.468000", "114230.468000", "114230.468000", "114230.484000", "114230.484000", "114230.484000", "114230.484000", "114230.484000", "114230.484000", "114230.500000", "114230.500000", "114230.500000", "114230.500000", "114230.500000", "114230.500000", "114310.468000", "114310.468000", "114310.468000", "114310.468000", "114310.468000", "114310.468000", "114310.484000", "114310.484000", "114310.484000", "114310.484000", "114310.484000", "114310.484000", "114310.484000", "114310.484000", "114310.500000", "114310.500000", "114310.500000", "114310.500000", "114310.500000", "114310.500000", "114330.828000", "114330.828000", "114330.828000", "114330.828000", "114330.843000", "114330.843000", "114330.843000", "114330.843000", "114330.843000", "114330.859000", "114330.859000"],
      "InstanceNumber": [1, 2, 3, 4, 5, 6, 7, 8, 9, 10, 11, 12, 13, 14, 15, 16, 17, 18, 19, 20, 21, 22, 23, 24, 25, 26, 27, 28, 29, 30, 31, 32, 33, 34, 35, 36, 37, 38, 39, 40, 41, 42, 43, 44, 45, 46, 47, 48, 49, 50, 51, 52, 53, 54, 55, 56, 57, 58, 59, 60, 61, 62, 63, 64, 65, 66, 67, 68, 69, 70, 71, 72, 73, 74, 75, 76, 77, 78, 79, 80, 81, 82, 83, 84, 85, 86, 87, 88, 89, 90, 91, 92, 93, 94, 95, 96, 97, 98, 99, 100, 101, 102, 103, 104, 105, 106, 107, 108, 109, 110, 111, 112, 113, 114, 115, 116, 117, 118, 119, 120, 121, 122, 123, 124, 125, 126, 127, 128, 129, 130, 131, 132, 133, 134, 135, 136, 137, 138, 139, 140, 141, 142, 143, 144, 145, 146, 147, 148, 149, 150, 151, 152, 153, 154, 155, 156, 157, 158, 159, 160, 161, 162, 163, 164],
      "LargestImagePixelValue": [1727, 1654, 1609, 1627, 1610, 1629, 1617, 1620, 1611, 1613, 1618, 1626, 1623, 1620, 1623, 1637, 1609, 1622, 1620, 1617, 1616, 1620, 1608, 1637, 1602, 1608, 1637, 1609, 1597, 1645, 1621, 1612, 1636, 1641, 1629, 1621, 1611, 1609, 1610, 1624, 1612, 1609, 1624, 1604, 1627, 1602, 1620, 1619, 1623, 1615, 1614, 1597, 1639, 1621, 1603, 1616, 1600, 1621, 1618, 1614, 1607, 1621, 1608, 1605, 1613, 1599, 1602, 1616, 1620, 1624, 1621, 1617, 1615, 1615, 1617, 1629, 1612, 1613, 1615, 1619, 1624, 1613, 1633, 1611, 1622, 1630, 1610, 1621, 1624, 1613, 1623, 1617, 1634, 1632, 1623, 1633, 1629, 1645, 1622, 1637, 1633, 1650, 1643, 1629, 1635, 1637, 1641, 1638, 1655, 1634, 1626, 1638, 1638, 1640, 1647, 1653, 1656, 1654, 1664, 1648, 1667, 1653, 1649, 1660, 1658, 1663, 1654, 1662, 1660, 1667, 1657, 1636, 1656, 1666, 1666, 1658, 1675, 1651, 1648, 1684, 1677, 1664, 1648, 1663, 1654, 1666, 1683, 1658, 1664, 1691, 1650, 1651, 1662, 1642, 1658, 1649, 1650, 1653, 1656, 1656, 1656, 1651, 1652, 1657],
      "WindowCenter": [732.0, 729.0, 728.0, 727.0, 727.0, 726.0, 726.0, 726.0, 725.0, 725.0, 726.0, 726.0, 726.0, 727.0, 727.0, 727.0, 727.0, 727.0, 727.0, 727.0, 727.0, 727.0, 727.0, 727.0, 727.0, 727.0, 727.0, 726.0, 727.0, 727.0, 727.0, 726.0, 726.0, 726.0, 726.0, 727.0, 727.0, 727.0, 727.0, 727.0, 727.0, 728.0, 728.0, 728.0, 728.0, 728.0, 728.0, 729.0, 729.0, 729.0, 728.0, 728.0, 728.0, 728.0, 728.0, 728.0, 728.0, 729.0, 729.0, 728.0, 727.0, 727.0, 727.0, 727.0, 727.0, 726.0, 726.0, 726.0, 726.0, 727.0, 727.0, 727.0, 727.0, 727.0, 728.0, 728.0, 728.0, 728.0, 728.0, 728.0, 728.0, 728.0, 728.0, 728.0, 727.0, 728.0, 728.0, 728.0, 729.0, 729.0, 729.0, 729.0, 730.0, 731.0, 730.0, 729.0, 731.0, 731.0, 729.0, 728.0, 728.0, 728.0, 728.0, 727.0, 727.0, 725.0, 727.0, 729.0, 729.0, 728.0, 728.0, 728.0, 728.0, 728.0, 729.0, 729.0, 729.0, 728.0, 728.0, 728.0, 728.0, 728.0, 729.0, 728.0, 728.0, 728.0, 728.0, 728.0, 728.0, 728.0, 727.0, 729.0, 730.0, 730.0, 729.0, 729.0, 730.0, 730.0, 730.0, 730.0, 730.0, 729.0, 729.0, 731.0, 731.0, 731.0, 729.0, 728.0, 728.0, 729.0, 729.0, 729.0, 728.0, 728.0, 728.0, 728.0, 729.0, 729.0, 729.0, 729.0, 729.0, 730.0, 730.0, 730.0],
      "WindowWidth": [1580.0, 1573.0, 1569.0, 1567.0, 1565.0, 1564.0, 1563.0, 1562.0, 1562.0, 1562.0, 1563.0, 1563.0, 1564.0, 1566.0, 1567.0, 1567.0, 1566.0, 1566.0, 1567.0, 1568.0, 1567.0, 1567.0, 1565.0, 1567.0, 1566.0, 1567.0, 1566.0, 1565.0, 1565.0, 1567.0, 1566.0, 1564.0, 1564.0, 1564.0, 1565.0, 1567.0, 1567.0, 1567.0, 1567.0, 1567.0, 1567.0, 1568.0, 1568.0, 1569.0, 1569.0, 1569.0, 1570.0, 1571.0, 1571.0, 1570.0, 1569.0, 1568.0, 1570.0, 1568.0, 1568.0, 1568.0, 1568.0, 1571.0, 1570.0, 1569.0, 1565.0, 1566.0, 1565.0, 1565.0, 1565.0, 1564.0, 1563.0, 1562.0, 1564.0, 1565.0, 1566.0, 1567.0, 1567.0, 1567.0, 1568.0, 1569.0, 1570.0, 1567.0, 1568.0, 1568.0, 1569.0, 1568.0, 1569.0, 1568.0, 1567.0, 1568.0, 1568.0, 1569.0, 1571.0, 1571.0, 1572.0, 1572.0, 1574.0, 1575.0, 1573.0, 1571.0, 1576.0, 1575.0, 1570.0, 1568.0, 1568.0, 1568.0, 1568.0, 1566.0, 1564.0, 1561.0, 1567.0, 1571.0, 1571.0, 1569.0, 1567.0, 1569.0, 1568.0, 1568.0, 1571.0, 1570.0, 1571.0, 1569.0, 1570.0, 1568.0, 1567.0, 1570.0, 1570.0, 1569.0, 1570.0, 1569.0, 1569.0, 1569.0, 1569.0, 1568.0, 1567.0, 1573.0, 1574.0, 1574.0, 1571.0, 1571.0, 1573.0, 1574.0, 1574.0, 1575.0, 1574.0, 1572.0, 1572.0, 1576.0, 1576.0, 1576.0, 1572.0, 1569.0, 1569.0, 1572.0, 1571.0, 1570.0, 1569.0, 1568.0, 1568.0, 1568.0, 1570.0, 1570.0, 1572.0, 1570.0, 1571.0, 1573.0, 1573.0, 1573.0]
    },
    "slices": {}
  }
}