{
  "AcquisitionMatrixPE": 64,
  "AcquisitionNumber": 1,
  "AcquisitionTime": "16:37:18.862500",
  "BandwidthPerPixelPhaseEncode": 33.967,
  "BaseResolution": 64,
  "CoilCombinationMethod": "Sum of Squares",
  "CoilString": "C:HEA;HEP",
  "ConversionSoftware": "dcm2niix",
  "ConversionSoftwareVersion": "v1.0.20220720",
  "DerivedVendorReportedEchoSpacing": 0.000460005,
  "DeviceSerialNumber": "35193",
  "DwellTime": 3.1e-06,
  "EchoTime": 0.03,
  "EffectiveEchoSpacing": 0.000460005,
  "FlipAngle": 90,
  "HeudiconvVersion": "1.1.6",
  "ImageOrientationPatientDICOM": [1, 0, 0, 0, 1, 0],
  "ImageOrientationText": "Tra",
  "ImageType": [
    "ORIGINAL",
    "PRIMARY",
    "M",
    "ND",
    "MOSAIC"
],
  "ImagingFrequency": 123.254,
  "InPlanePhaseEncodingDirectionDICOM": "COL",
  "InstitutionAddress": "Xinjiekouwai Street No 19,Beijing,Haidian District,CN,100875",
  "InstitutionName": "BNU MRI Center",
  "InstitutionalDepartmentName": "Department",
  "MRAcquisitionType": "2D",
  "MagneticFieldStrength": 3,
  "Manufacturer": "Siemens",
  "ManufacturersModelName": "TrioTim",
  "MatrixCoilMode": "SENSE",
  "Modality": "MR",
  "NonlinearGradientCorrection": false,
  "PartialFourier": 1,
  "PatientPosition": "HFS",
  "PercentPhaseFOV": 100,
  "PercentSampling": 100,
  "PhaseEncodingDirection": "j-",
  "PhaseEncodingSteps": 64,
  "PhaseResolution": 1,
  "PixelBandwidth": 2520,
  "ProcedureStepDescription": "BNU_cst_2015^Guo.TaoMei",
  "ProtocolName": "ge_func_3x3x4_164",
  "PulseSequenceDetails": "%SiemensSeq%\\ep2d_bold",
  "ReceiveCoilName": "HeadMatrix",
  "ReconMatrixPE": 64,
  "RepetitionTime": 2,
  "SAR": 0.15707,
  "ScanOptions": "FS",
  "ScanningSequence": "EP",
  "SequenceName": "*epfid2d1_64",
  "SequenceVariant": "SK",
  "SeriesDescription": "ge_func_3x3x4_164",
  "SeriesNumber": 4,
  "ShimSetting": [-4462, -19119, -9920, 1450, -16, 359, 425, -249],
  "SliceThickness": 4,
  "SliceTiming": [0, 1.0325, 0.06, 1.095, 0.12, 1.155, 0.1825, 1.215, 0.2425, 1.2775, 0.3025, 1.3375, 0.365, 1.3975, 0.425, 1.46, 0.485, 1.52, 0.5475, 1.58, 0.6075, 1.6425, 0.6675, 1.7025, 0.73, 1.7625, 0.79, 1.825, 0.85, 1.885, 0.9125, 1.945, 0.9725],
  "SoftwareVersions": "syngo MR B17",
  "SpacingBetweenSlices": 4.6,
  "StationName": "MRC35193",
  "TaskName": "CognitiveControl",
  "TotalReadoutTime": 0.0289803,
  "TxRefAmp": 316.236,
  "dcmmeta_affine": [
    [-3.125, 0.0, 0.0, 108.77108764648438],
    [0.0, 3.125, 0.0, -76.634033203125],
    [0.0, 0.0, 4.599999904632568, -45.26264953613281],
    [0.0, 0.0, 0.0, 1.0]
],
  "dcmmeta_reorient_transform": [
    [0.0, -1.0, 0.0, 63.0],
    [1.0, 0.0, 0.0, 0.0],
    [0.0, 0.0, 1.0, 0.0],
    [0.0, 0.0, 0.0, 1.0]
],
  "dcmmeta_shape": [64, 64, 33, 164],
  "dcmmeta_slice_dim": 2,
  "dcmmeta_version": 0.6,
  "global": {
    "const": {
      "AcquisitionMatrix": [64, 0, 0, 64],
      "AngioFlag": "N",
      "BitsAllocated": 16,
      "BitsStored": 12,
      "Columns": 384,
      "EchoNumbers": 1,
      "EchoTime": 30.0,
      "EchoTrainLength": 1,
      "FlipAngle": 90.0,
      "HighBit": 11,
      "ImageOrientationPatient": [1.0, 0.0, 0.0, 0.0, 1.0, 0.0],
      "ImagePositionPatient": [-608.77108478546, -620.24096298218, -45.262649536133],
      "ImageType": [
        "ORIGINAL",
        "PRIMARY",
        "M",
        "ND",
        "MOSAIC"
],
      "ImagedNucleus": "1H",
      "ImagingFrequency": 123.253746,
      "InPlanePhaseEncodingDirection": "COL",
      "MRAcquisitionType": "2D",
      "MagneticFieldStrength": 3.0,
      "Manufacturer": "SIEMENS",
      "ManufacturerModelName": "TrioTim",
      "Modality": "MR",
      "NumberOfAverages": 1.0,
      "NumberOfPhaseEncodingSteps": 64,
      "PercentPhaseFieldOfView": 100.0,
      "PercentSampling": 100.0,
      "PerformedProcedureStepStartTime": "162221.531000",
      "PhotometricInterpretation": "MONOCHROME2",
      "PixelBandwidth": 2520.0,
      "PixelRepresentation": 0,
      "PixelSpacing": [3.125, 3.125],
      "ProtocolName": "ge_func_3x3x4_164",
      "RepetitionTime": 2000.0,
      "Rows": 384,
      "SAR": 0.15706957970542,
      "SamplesPerPixel": 1,
      "ScanOptions": "FS",
      "ScanningSequence": "EP",
      "SequenceName": "*epfid2d1_64",
      "SequenceVariant": "SK",
      "SeriesDescription": "ge_func_3x3x4_164",
      "SeriesNumber": 4,
      "SeriesTime": "163818.046000",
      "SliceLocation": -45.262649536133,
      "SliceThickness": 4.0,
      "SmallestImagePixelValue": 0,
      "SoftwareVersions": "syngo MR B17",
      "SpacingBetweenSlices": 4.5999999046326,
      "SpecificCharacterSet": "ISO_IR 100",
      "StudyID": "1",
      "StudyTime": "162221.468000",
      "TransmitCoilName": "Body",
      "VariableFlipAngleFlag": "N",
      "WindowCenterWidthExplanation": "Algo1",
      "dBdt": 0.0},
    "slices": {}
  },
  "time": {
    "samples": {
      "AcquisitionNumber": [1, 2, 3, 4, 5, 6, 7, 8, 9, 10, 11, 12, 13, 14, 15, 16, 17, 18, 19, 20, 21, 22, 23, 24, 25, 26, 27, 28, 29, 30, 31, 32, 33, 34, 35, 36, 37, 38, 39, 40, 41, 42, 43, 44, 45, 46, 47, 48, 49, 50, 51, 52, 53, 54, 55, 56, 57, 58, 59, 60, 61, 62, 63, 64, 65, 66, 67, 68, 69, 70, 71, 72, 73, 74, 75, 76, 77, 78, 79, 80, 81, 82, 83, 84, 85, 86, 87, 88, 89, 90, 91, 92, 93, 94, 95, 96, 97, 98, 99, 100, 101, 102, 103, 104, 105, 106, 107, 108, 109, 110, 111, 112, 113, 114, 115, 116, 117, 118, 119, 120, 121, 122, 123, 124, 125, 126, 127, 128, 129, 130, 131, 132, 133, 134, 135, 136, 137, 138, 139, 140, 141, 142, 143, 144, 145, 146, 147, 148, 149, 150, 151, 152, 153, 154, 155, 156, 157, 158, 159, 160, 161, 162, 163, 164],
      "AcquisitionTime": ["163718.862500", "163720.870000", "163722.877500", "163724.885000", "163726.892500", "163728.902500", "163730.910000", "163732.917500", "163734.925000", "163736.932500", "163738.942500", "163740.950000", "163742.957500", "163744.965000", "163746.975000", "163748.982500", "163750.990000", "163752.997500", "163755.005000", "163757.015000", "163759.022500", "163801.030000", "163803.037500", "163805.045000", "163807.055000", "163809.062500", "163811.070000", "163813.077500", "163815.087500", "163817.095000", "163819.102500", "163821.110000", "163823.117500", "163825.127500", "163827.135000", "163829.142500", "163831.150000", "163833.157500", "163835.167500", "163837.175000", "163839.182500", "163841.190000", "163843.200000", "163845.207500", "163847.215000", "163849.222500", "163851.230000", "163853.240000", "163855.247500", "163857.255000", "163859.262500", "163901.270000", "163903.280000", "163905.287500", "163907.295000", "163909.302500", "163911.312500", "163913.320000", "163915.327500", "163917.335000", "163919.342500", "163921.352500", "163923.360000", "163925.367500", "163927.375000", "163929.382500", "163931.392500", "163933.400000", "163935.407500", "163937.415000", "163939.422500", "163941.432500", "163943.440000", "163945.447500", "163947.455000", "163949.465000", "163951.472500", "163953.480000", "163955.487500", "163957.495000", "163959.505000", "164001.512500", "164003.520000", "164005.527500", "164007.535000", "164009.545000", "164011.552500", "164013.560000", "164015.567500", "164017.577500", "164019.585000", "164021.592500", "164023.600000", "164025.607500", "164027.617500", "164029.625000", "164031.632500", "164033.640000", "164035.647500", "164037.657500", "164039.665000", "164041.672500", "164043.680000", "164045.690000", "164047.697500", "164049.705000", "164051.712500", "164053.720000", "164055.730000", "164057.737500", "164059.745000", "164101.752500", "164103.760000", "164105.770000", "164107.777500", "164109.785000", "164111.792500", "164113.800000", "164115.810000", "164117.817500", "164119.825000", "164121.832500", "164123.842500", "164125.850000", "164127.857500", "164129.865000", "164131.872500", "164133.882500", "164135.890000", "164137.897500", "164139.905000", "164141.912500", "164143.922500", "164145.930000", "164147.937500", "164149.945000", "164151.955000", "164153.962500", "164155.970000", "164157.977500", "164159.985000", "164201.995000", "164204.002500", "164206.010000", "164208.017500", "164210.025000", "164212.035000", "164214.042500", "164216.050000", "164218.057500", "164220.067500", "164222.075000", "164224.082500", "164226.090000", "164228.097500", "164230.107500", "164232.115000", "164234.122500", "164236.130000", "164238.137500", "164240.147500", "164242.155000", "164244.162500", "164246.170000"],
      "ContentTime": ["163818.062000", "163818.062000", "163818.062000", "163818.062000", "163818.062000", "163818.062000", "163818.062000", "163818.078000", "163818.078000", "163818.078000", "163818.078000", "163818.078000", "163818.093000", "163818.093000", "163818.093000", "163818.093000", "163818.109000", "163818.109000", "163818.109000", "163818.125000", "163818.125000", "163818.125000", "163818.125000", "163818.125000", "163818.125000", "163818.125000", "163818.125000", "163818.140000", "163818.140000", "163858.046000", "163858.046000", "163858.046000", "163858.062000", "163858.062000", "163858.062000", "163858.062000", "163858.062000", "163858.062000", "163858.062000", "163858.062000", "163858.078000", "163858.078000", "163858.078000", "163858.078000", "163858.078000", "163858.078000", "163858.078000", "163858.078000", "163858.093000", "163938.046000", "163938.046000", "163938.046000", "163938.062000", "163938.062000", "163938.062000", "163938.062000", "163938.062000", "163938.062000", "163938.062000", "163938.062000", "163938.078000", "163938.078000", "163938.078000", "163938.078000", "163938.078000", "163938.078000", "163938.078000", "163938.078000", "163938.093000", "164018.046000", "164018.046000", "164018.046000", "164018.062000", "164018.062000", "164018.062000", "164018.062000", "164018.078000", "164018.078000", "164018.078000", "164018.078000", "164018.078000", "164018.078000", "164018.078000", "164018.093000", "164018.093000", "164018.093000", "164018.093000", "164018.093000", "164018.093000", "164058.046000", "164058.046000", "164058.046000", "164058.062000", "164058.062000", "164058.062000", "164058.062000", "164058.062000", "164058.062000", "164058.062000", "164058.062000", "164058.078000", "164058.078000", "164058.078000", "164058.078000", "164058.078000", "164058.078000", "164058.078000", "164058.078000", "164058.093000", "164138.046000", "164138.046000", "164138.046000", "164138.078000", "164138.078000", "164138.078000", "164138.078000", "164138.078000", "164138.078000", "164138.078000", "164138.078000", "164138.093000", "164138.093000", "164138.093000", "164138.093000", "164138.093000", "164138.093000", "164138.093000", "164138.093000", "164138.109000", "164218.046000", "164218.046000", "164218.046000", "164218.062000", "164218.062000", "164218.062000", "164218.078000", "164218.078000", "164218.078000", "164218.078000", "164218.078000", "164218.078000", "164218.078000", "164218.093000", "164218.093000", "164218.093000", "164218.093000", "164218.093000", "164218.093000", "164218.109000", "164247.734000", "164247.734000", "164247.734000", "164247.734000", "164247.734000", "164247.734000", "164247.750000", "164247.750000", "164247.750000", "164247.750000", "164247.750000", "164247.750000", "164247.750000", "164247.750000", "164247.765000"],
      "InstanceCreationTime": ["163818.062000", "163818.062000", "163818.062000", "163818.062000", "163818.062000", "163818.062000", "163818.062000", "163818.078000", "163818.078000", "163818.078000", "163818.078000", "163818.078000", "163818.093000", "163818.093000", "163818.093000", "163818.093000", "163818.109000", "163818.109000", "163818.109000", "163818.125000", "163818.125000", "163818.125000", "163818.125000", "163818.125000", "163818.125000", "163818.125000", "163818.125000", "163818.140000", "163818.140000", "163858.046000", "163858.046000", "163858.046000", "163858.062000", "163858.062000", "163858.062000", "163858.062000", "163858.062000", "163858.062000", "163858.062000", "163858.062000", "163858.078000", "163858.078000", "163858.078000", "163858.078000", "163858.078000", "163858.078000", "163858.078000", "163858.078000", "163858.093000", "163938.046000", "163938.046000", "163938.046000", "163938.062000", "163938.062000", "163938.062000", "163938.062000", "163938.062000", "163938.062000", "163938.062000", "163938.062000", "163938.078000", "163938.078000", "163938.078000", "163938.078000", "163938.078000", "163938.078000", "163938.078000", "163938.078000", "163938.093000", "164018.046000", "164018.046000", "164018.046000", "164018.062000", "164018.062000", "164018.062000", "164018.062000", "164018.078000", "164018.078000", "164018.078000", "164018.078000", "164018.078000", "164018.078000", "164018.078000", "164018.093000", "164018.093000", "164018.093000", "164018.093000", "164018.093000", "164018.093000", "164058.046000", "164058.046000", "164058.046000", "164058.062000", "164058.062000", "164058.062000", "164058.062000", "164058.062000", "164058.062000", "164058.062000", "164058.062000", "164058.078000", "164058.078000", "164058.078000", "164058.078000", "164058.078000", "164058.078000", "164058.078000", "164058.078000", "164058.093000", "164138.046000", "164138.046000", "164138.046000", "164138.078000", "164138.078000", "164138.078000", "164138.078000", "164138.078000", "164138.078000", "164138.078000", "164138.078000", "164138.093000", "164138.093000", "164138.093000", "164138.093000", "164138.093000", "164138.093000", "164138.093000", "164138.093000", "164138.109000", "164218.046000", "164218.046000", "164218.046000", "164218.062000", "164218.062000", "164218.062000", "164218.078000", "164218.078000", "164218.078000", "164218.078000", "164218.078000", "164218.078000", "164218.078000", "164218.093000", "164218.093000", "164218.093000", "164218.093000", "164218.093000", "164218.093000", "164218.109000", "164247.734000", "164247.734000", "164247.734000", "164247.734000", "164247.734000", "164247.734000", "164247.750000", "164247.750000", "164247.750000", "164247.750000", "164247.750000", "164247.750000", "164247.750000", "164247.750000", "164247.765000"],
      "InstanceNumber": [1, 2, 3, 4, 5, 6, 7, 8, 9, 10, 11, 12, 13, 14, 15, 16, 17, 18, 19, 20, 21, 22, 23, 24, 25, 26, 27, 28, 29, 30, 31, 32, 33, 34, 35, 36, 37, 38, 39, 40, 41, 42, 43, 44, 45, 46, 47, 48, 49, 50, 51, 52, 53, 54, 55, 56, 57, 58, 59, 60, 61, 62, 63, 64, 65, 66, 67, 68, 69, 70, 71, 72, 73, 74, 75, 76, 77, 78, 79, 80, 81, 82, 83, 84, 85, 86, 87, 88, 89, 90, 91, 92, 93, 94, 95, 96, 97, 98, 99, 100, 101, 102, 103, 104, 105, 106, 107, 108, 109, 110, 111, 112, 113, 114, 115, 116, 117, 118, 119, 120, 121, 122, 123, 124, 125, 126, 127, 128, 129, 130, 131, 132, 133, 134, 135, 136, 137, 138, 139, 140, 141, 142, 143, 144, 145, 146, 147, 148, 149, 150, 151, 152, 153, 154, 155, 156, 157, 158, 159, 160, 161, 162, 163, 164],
      "LargestImagePixelValue": [1654, 1640, 1579, 1601, 1571, 1584, 1586, 1587, 1582, 1584, 1593, 1596, 1605, 1610, 1595, 1580, 1607, 1618, 1619, 1626, 1602, 1607, 1609, 1617, 1613, 1596, 1602, 1623, 1624, 1617, 1600, 1602, 1615, 1612, 1648, 1631, 1609, 1611, 1604, 1598, 1628, 1622, 1613, 1614, 1616, 1621, 1598, 1620, 1612, 1620, 1608, 1604, 1604, 1619, 1590, 1614, 1629, 1604, 1612, 1618, 1623, 1621, 1612, 1615, 1626, 1612, 1611, 1610, 1615, 1611, 1612, 1607, 1604, 1630, 1614, 1625, 1634, 1614, 1609, 1602, 1616, 1637, 1616, 1624, 1619, 1618, 1608, 1611, 1632, 1626, 1632, 1621, 1612, 1626, 1625, 1619, 1624, 1622, 1616, 1627, 1638, 1619, 1628, 1635, 1623, 1627, 1625, 1636, 1643, 1629, 1626, 1625, 1635, 1622, 1632, 1626, 1634, 1630, 1622, 1602, 1635, 1645, 1628, 1614, 1624, 1630, 1637, 1625, 1634, 1618, 1631, 1635, 1630, 1635, 1645, 1638, 1652, 1640, 1644, 1653, 1638, 1643, 1645, 1651, 1648, 1639, 1634, 1637, 1655, 1652, 1664, 1657, 1622, 1653, 1668, 1633, 1648, 1647, 1645, 1667, 1633, 1606, 1657, 1672],
      "WindowCenter": [699.0, 697.0, 696.0, 696.0, 696.0, 695.0, 696.0, 695.0, 695.0, 695.0, 695.0, 696.0, 696.0, 696.0, 696.0, 696.0, 696.0, 696.0, 696.0, 696.0, 696.0, 695.0, 695.0, 696.0, 696.0, 696.0, 696.0, 696.0, 696.0, 696.0, 696.0, 696.0, 696.0, 696.0, 695.0, 695.0, 696.0, 696.0, 695.0, 695.0, 695.0, 696.0, 696.0, 696.0, 696.0, 696.0, 696.0, 696.0, 696.0, 696.0, 696.0, 696.0, 696.0, 696.0, 696.0, 696.0, 696.0, 696.0, 696.0, 696.0, 696.0, 696.0, 697.0, 696.0, 696.0, 696.0, 696.0, 695.0, 696.0, 696.0, 696.0, 696.0, 696.0, 696.0, 696.0, 696.0, 696.0, 696.0, 696.0, 696.0, 696.0, 696.0, 697.0, 696.0, 696.0, 696.0, 696.0, 696.0, 696.0, 697.0, 696.0, 696.0, 696.0, 696.0, 696.0, 696.0, 696.0, 696.0, 696.0, 696.0, 696.0, 696.0, 697.0, 696.0, 697.0, 697.0, 697.0, 697.0, 697.0, 696.0, 696.0, 696.0, 697.0, 697.0, 697.0, 697.0, 697.0, 697.0, 697.0, 697.0, 697.0, 697.0, 697.0, 697.0, 697.0, 697.0, 697.0, 696.0, 697.0, 697.0, 697.0, 697.0, 697.0, 697.0, 696.0, 696.0, 696.0, 696.0, 697.0, 696.0, 696.0, 696.0, 696.0, 696.0, 696.0, 696.0, 697.0, 697.0, 697.0, 697.0, 697.0, 696.0, 697.0, 697.0, 697.0, 697.0, 697.0, 697.0, 697.0, 697.0, 697.0, 696.0, 698.0, 697.0],
      "WindowWidth": [1522.0, 1517.0, 1516.0, 1516.0, 1514.0, 1512.0, 1514.0, 1513.0, 1513.0, 1512.0, 1513.0, 1514.0, 1514.0, 1516.0, 1515.0, 1514.0, 1515.0, 1515.0, 1516.0, 1516.0, 1514.0, 1513.0, 1514.0, 1515.0, 1515.0, 1514.0, 1515.0, 1514.0, 1514.0, 1515.0, 1516.0, 1515.0, 1515.0, 1514.0, 1514.0, 1514.0, 1514.0, 1515.0, 1513.0, 1513.0, 1513.0, 1515.0, 1515.0, 1515.0, 1515.0, 1515.0, 1515.0, 1516.0, 1515.0, 1516.0, 1515.0, 1516.0, 1515.0, 1516.0, 1516.0, 1516.0, 1515.0, 1516.0, 1516.0, 1515.0, 1515.0, 1517.0, 1517.0, 1516.0, 1516.0, 1516.0, 1515.0, 1513.0, 1514.0, 1515.0, 1515.0, 1514.0, 1514.0, 1515.0, 1514.0, 1515.0, 1515.0, 1515.0, 1515.0, 1516.0, 1516.0, 1516.0, 1517.0, 1516.0, 1516.0, 1515.0, 1514.0, 1514.0, 1516.0, 1517.0, 1516.0, 1515.0, 1515.0, 1515.0, 1515.0, 1516.0, 1515.0, 1515.0, 1515.0, 1515.0, 1515.0, 1514.0, 1518.0, 1516.0, 1518.0, 1519.0, 1517.0, 1517.0, 1517.0, 1515.0, 1515.0, 1516.0, 1517.0, 1517.0, 1518.0, 1517.0, 1518.0, 1518.0, 1516.0, 1519.0, 1520.0, 1519.0, 1519.0, 1518.0, 1518.0, 1517.0, 1518.0, 1516.0, 1517.0, 1517.0, 1519.0, 1519.0, 1518.0, 1517.0, 1516.0, 1516.0, 1516.0, 1516.0, 1517.0, 1516.0, 1515.0, 1516.0, 1516.0, 1516.0, 1514.0, 1515.0, 1518.0, 1519.0, 1519.0, 1517.0, 1516.0, 1516.0, 1517.0, 1519.0, 1518.0, 1518.0, 1519.0, 1519.0, 1517.0, 1518.0, 1517.0, 1515.0, 1522.0, 1518.0]
    },
    "slices": {}
  }
}