{
  "AcquisitionMatrixPE": 64,
  "AcquisitionNumber": 1,
  "AcquisitionTime": "16:24:23.025000",
  "BandwidthPerPixelPhaseEncode": 33.967,
  "BaseResolution": 64,
  "CoilCombinationMethod": "Sum of Squares",
  "CoilString": "C:HEA;HEP",
  "ConversionSoftware": "dcm2niix",
  "ConversionSoftwareVersion": "v1.0.20220720",
  "DerivedVendorReportedEchoSpacing": 0.000460005,
  "DeviceSerialNumber": "35193",
  "DwellTime": 3.1e-06,
  "EchoTime": 0.03,
  "EffectiveEchoSpacing": 0.000460005,
  "FlipAngle": 90,
  "HeudiconvVersion": "1.1.6",
  "ImageOrientationPatientDICOM": [1, 0, 0, 0, 1, 0],
  "ImageOrientationText": "Tra",
  "ImageType": [
    "ORIGINAL",
    "PRIMARY",
    "M",
    "ND",
    "MOSAIC"
],
  "ImagingFrequency": 123.254,
  "InPlanePhaseEncodingDirectionDICOM": "COL",
  "InstitutionAddress": "Xinjiekouwai Street No 19,Beijing,Haidian District,CN,100875",
  "InstitutionName": "BNU MRI Center",
  "InstitutionalDepartmentName": "Department",
  "MRAcquisitionType": "2D",
  "MagneticFieldStrength": 3,
  "Manufacturer": "Siemens",
  "ManufacturersModelName": "TrioTim",
  "MatrixCoilMode": "SENSE",
  "Modality": "MR",
  "NonlinearGradientCorrection": false,
  "PartialFourier": 1,
  "PatientPosition": "HFS",
  "PercentPhaseFOV": 100,
  "PercentSampling": 100,
  "PhaseEncodingDirection": "j-",
  "PhaseEncodingSteps": 64,
  "PhaseResolution": 1,
  "PixelBandwidth": 2520,
  "ProcedureStepDescription": "BNU_cst_2015^Guo.TaoMei",
  "ProtocolName": "ge_func_3x3x4_164",
  "PulseSequenceDetails": "%SiemensSeq%\\ep2d_bold",
  "ReceiveCoilName": "HeadMatrix",
  "ReconMatrixPE": 64,
  "RepetitionTime": 2,
  "SAR": 0.15707,
  "ScanOptions": "FS",
  "ScanningSequence": "EP",
  "SequenceName": "*epfid2d1_64",
  "SequenceVariant": "SK",
  "SeriesDescription": "ge_func_3x3x4_164",
  "SeriesNumber": 2,
  "ShimSetting": [-4462, -19119, -9920, 1450, -16, 359, 425, -249],
  "SliceThickness": 4,
  "SliceTiming": [0, 1.0325, 0.06, 1.095, 0.12, 1.155, 0.1825, 1.215, 0.2425, 1.2775, 0.3025, 1.3375, 0.365, 1.3975, 0.425, 1.46, 0.485, 1.52, 0.5475, 1.58, 0.6075, 1.6425, 0.6675, 1.7025, 0.73, 1.7625, 0.79, 1.825, 0.85, 1.885, 0.9125, 1.945, 0.9725],
  "SoftwareVersions": "syngo MR B17",
  "SpacingBetweenSlices": 4.6,
  "StationName": "MRC35193",
  "TaskName": "LanguageControl",
  "TotalReadoutTime": 0.0289803,
  "TxRefAmp": 316.236,
  "dcmmeta_affine": [
    [-3.125, 0.0, 0.0, 108.77108764648438],
    [0.0, 3.125, 0.0, -76.634033203125],
    [0.0, 0.0, 4.599999904632568, -45.26264953613281],
    [0.0, 0.0, 0.0, 1.0]
],
  "dcmmeta_reorient_transform": [
    [0.0, -1.0, 0.0, 63.0],
    [1.0, 0.0, 0.0, 0.0],
    [0.0, 0.0, 1.0, 0.0],
    [0.0, 0.0, 0.0, 1.0]
],
  "dcmmeta_shape": [64, 64, 33, 164],
  "dcmmeta_slice_dim": 2,
  "dcmmeta_version": 0.6,
  "global": {
    "const": {
      "AcquisitionMatrix": [64, 0, 0, 64],
      "AngioFlag": "N",
      "BitsAllocated": 16,
      "BitsStored": 12,
      "Columns": 384,
      "EchoNumbers": 1,
      "EchoTime": 30.0,
      "EchoTrainLength": 1,
      "FlipAngle": 90.0,
      "HighBit": 11,
      "ImageOrientationPatient": [1.0, 0.0, 0.0, 0.0, 1.0, 0.0],
      "ImagePositionPatient": [-608.77108478546, -620.24096298218, -45.262649536133],
      "ImageType": [
        "ORIGINAL",
        "PRIMARY",
        "M",
        "ND",
        "MOSAIC"
],
      "ImagedNucleus": "1H",
      "ImagingFrequency": 123.253747,
      "InPlanePhaseEncodingDirection": "COL",
      "MRAcquisitionType": "2D",
      "MagneticFieldStrength": 3.0,
      "Manufacturer": "SIEMENS",
      "ManufacturerModelName": "TrioTim",
      "Modality": "MR",
      "NumberOfAverages": 1.0,
      "NumberOfPhaseEncodingSteps": 64,
      "PercentPhaseFieldOfView": 100.0,
      "PercentSampling": 100.0,
      "PerformedProcedureStepStartTime": "162221.531000",
      "PhotometricInterpretation": "MONOCHROME2",
      "PixelBandwidth": 2520.0,
      "PixelRepresentation": 0,
      "PixelSpacing": [3.125, 3.125],
      "ProtocolName": "ge_func_3x3x4_164",
      "RepetitionTime": 2000.0,
      "Rows": 384,
      "SAR": 0.15706957970542,
      "SamplesPerPixel": 1,
      "ScanOptions": "FS",
      "ScanningSequence": "EP",
      "SequenceName": "*epfid2d1_64",
      "SequenceVariant": "SK",
      "SeriesDescription": "ge_func_3x3x4_164",
      "SeriesNumber": 2,
      "SeriesTime": "162504.828000",
      "SliceLocation": -45.262649536133,
      "SliceThickness": 4.0,
      "SmallestImagePixelValue": 0,
      "SoftwareVersions": "syngo MR B17",
      "SpacingBetweenSlices": 4.5999999046326,
      "SpecificCharacterSet": "ISO_IR 100",
      "StudyID": "1",
      "StudyTime": "162221.468000",
      "TransmitCoilName": "Body",
      "VariableFlipAngleFlag": "N",
      "WindowCenterWidthExplanation": "Algo1",
      "dBdt": 0.0},
    "slices": {}
  },
  "time": {
    "samples": {
      "AcquisitionNumber": [1, 2, 3, 4, 5, 6, 7, 8, 9, 10, 11, 12, 13, 14, 15, 16, 17, 18, 19, 20, 21, 22, 23, 24, 25, 26, 27, 28, 29, 30, 31, 32, 33, 34, 35, 36, 37, 38, 39, 40, 41, 42, 43, 44, 45, 46, 47, 48, 49, 50, 51, 52, 53, 54, 55, 56, 57, 58, 59, 60, 61, 62, 63, 64, 65, 66, 67, 68, 69, 70, 71, 72, 73, 74, 75, 76, 77, 78, 79, 80, 81, 82, 83, 84, 85, 86, 87, 88, 89, 90, 91, 92, 93, 94, 95, 96, 97, 98, 99, 100, 101, 102, 103, 104, 105, 106, 107, 108, 109, 110, 111, 112, 113, 114, 115, 116, 117, 118, 119, 120, 121, 122, 123, 124, 125, 126, 127, 128, 129, 130, 131, 132, 133, 134, 135, 136, 137, 138, 139, 140, 141, 142, 143, 144, 145, 146, 147, 148, 149, 150, 151, 152, 153, 154, 155, 156, 157, 158, 159, 160, 161, 162, 163, 164],
      "AcquisitionTime": ["162423.025000", "162425.032500", "162427.040000", "162429.047500", "162431.057500", "162433.065000", "162435.072500", "162437.080000", "162439.087500", "162441.097500", "162443.105000", "162445.112500", "162447.120000", "162449.130000", "162451.137500", "162453.145000", "162455.152500", "162457.160000", "162459.170000", "162501.177500", "162503.185000", "162505.192500", "162507.200000", "162509.210000", "162511.217500", "162513.225000", "162515.232500", "162517.242500", "162519.250000", "162521.257500", "162523.265000", "162525.272500", "162527.282500", "162529.290000", "162531.297500", "162533.305000", "162535.312500", "162537.322500", "162539.330000", "162541.337500", "162543.345000", "162545.355000", "162547.362500", "162549.370000", "162551.377500", "162553.385000", "162555.395000", "162557.402500", "162559.410000", "162601.417500", "162603.425000", "162605.435000", "162607.442500", "162609.450000", "162611.457500", "162613.465000", "162615.475000", "162617.482500", "162619.490000", "162621.497500", "162623.507500", "162625.515000", "162627.522500", "162629.530000", "162631.537500", "162633.547500", "162635.555000", "162637.562500", "162639.570000", "162641.577500", "162643.587500", "162645.595000", "162647.602500", "162649.610000", "162651.620000", "162653.627500", "162655.635000", "162657.642500", "162659.650000", "162701.660000", "162703.667500", "162705.675000", "162707.682500", "162709.690000", "162711.700000", "162713.707500", "162715.715000", "162717.722500", "162719.732500", "162721.740000", "162723.747500", "162725.755000", "162727.762500", "162729.772500", "162731.780000", "162733.787500", "162735.795000", "162737.802500", "162739.812500", "162741.820000", "162743.827500", "162745.835000", "162747.842500", "162749.852500", "162751.860000", "162753.867500", "162755.875000", "162757.885000", "162759.892500", "162801.900000", "162803.907500", "162805.915000", "162807.925000", "162809.932500", "162811.940000", "162813.947500", "162815.955000", "162817.965000", "162819.972500", "162821.980000", "162823.987500", "162825.997500", "162828.005000", "162830.012500", "162832.020000", "162834.027500", "162836.037500", "162838.045000", "162840.052500", "162842.060000", "162844.067500", "162846.077500", "162848.085000", "162850.092500", "162852.100000", "162854.110000", "162856.117500", "162858.125000", "162900.132500", "162902.140000", "162904.150000", "162906.157500", "162908.165000", "162910.172500", "162912.180000", "162914.190000", "162916.197500", "162918.205000", "162920.212500", "162922.220000", "162924.230000", "162926.237500", "162928.245000", "162930.252500", "162932.262500", "162934.270000", "162936.277500", "162938.285000", "162940.292500", "162942.302500", "162944.310000", "162946.317500", "162948.325000", "162950.332500"],
      "ContentTime": ["162504.843000", "162504.843000", "162504.843000", "162504.843000", "162504.843000", "162504.843000", "162504.843000", "162504.859000", "162504.859000", "162504.859000", "162504.859000", "162504.875000", "162504.875000", "162504.875000", "162504.875000", "162504.875000", "162504.875000", "162504.875000", "162504.875000", "162504.890000", "162544.828000", "162544.828000", "162544.828000", "162544.843000", "162544.843000", "162544.843000", "162544.843000", "162544.843000", "162544.843000", "162544.843000", "162544.843000", "162544.859000", "162544.859000", "162544.859000", "162544.859000", "162544.859000", "162544.859000", "162544.859000", "162544.859000", "162544.859000", "162624.828000", "162624.828000", "162624.828000", "162624.843000", "162624.843000", "162624.843000", "162624.843000", "162624.843000", "162624.843000", "162624.859000", "162624.859000", "162624.859000", "162624.859000", "162624.859000", "162624.859000", "162624.859000", "162624.875000", "162624.875000", "162624.875000", "162624.875000", "162704.828000", "162704.828000", "162704.828000", "162704.843000", "162704.843000", "162704.843000", "162704.843000", "162704.843000", "162704.859000", "162704.859000", "162704.859000", "162704.859000", "162704.859000", "162704.859000", "162704.859000", "162704.875000", "162704.875000", "162704.875000", "162704.875000", "162704.875000", "162744.828000", "162744.828000", "162744.828000", "162744.843000", "162744.843000", "162744.843000", "162744.843000", "162744.859000", "162744.859000", "162744.859000", "162744.859000", "162744.859000", "162744.859000", "162744.875000", "162744.875000", "162744.875000", "162744.875000", "162744.875000", "162744.875000", "162744.875000", "162824.828000", "162824.828000", "162824.828000", "162824.843000", "162824.843000", "162824.843000", "162824.843000", "162824.843000", "162824.859000", "162824.859000", "162824.859000", "162824.859000", "162824.859000", "162824.859000", "162824.859000", "162824.859000", "162824.875000", "162824.875000", "162824.875000", "162824.875000", "162844.828000", "162844.828000", "162844.828000", "162844.843000", "162844.843000", "162844.843000", "162844.843000", "162844.843000", "162844.843000", "162844.859000", "162924.828000", "162924.828000", "162924.828000", "162924.843000", "162924.843000", "162924.843000", "162924.843000", "162924.843000", "162924.843000", "162924.843000", "162924.859000", "162924.859000", "162924.859000", "162924.859000", "162924.859000", "162924.859000", "162924.859000", "162924.875000", "162924.875000", "162924.875000", "162951.859000", "162951.875000", "162951.875000", "162951.875000", "162951.875000", "162951.875000", "162951.890000", "162951.890000", "162951.890000", "162951.890000", "162951.890000", "162951.890000", "162951.890000", "162951.890000"],
      "InstanceCreationTime": ["162504.843000", "162504.843000", "162504.843000", "162504.843000", "162504.843000", "162504.843000", "162504.843000", "162504.859000", "162504.859000", "162504.859000", "162504.859000", "162504.875000", "162504.875000", "162504.875000", "162504.875000", "162504.875000", "162504.875000", "162504.875000", "162504.875000", "162504.890000", "162544.828000", "162544.828000", "162544.828000", "162544.843000", "162544.843000", "162544.843000", "162544.843000", "162544.843000", "162544.843000", "162544.843000", "162544.843000", "162544.859000", "162544.859000", "162544.859000", "162544.859000", "162544.859000", "162544.859000", "162544.859000", "162544.859000", "162544.859000", "162624.828000", "162624.828000", "162624.828000", "162624.843000", "162624.843000", "162624.843000", "162624.843000", "162624.843000", "162624.843000", "162624.859000", "162624.859000", "162624.859000", "162624.859000", "162624.859000", "162624.859000", "162624.859000", "162624.875000", "162624.875000", "162624.875000", "162624.875000", "162704.828000", "162704.828000", "162704.828000", "162704.843000", "162704.843000", "162704.843000", "162704.843000", "162704.843000", "162704.859000", "162704.859000", "162704.859000", "162704.859000", "162704.859000", "162704.859000", "162704.859000", "162704.875000", "162704.875000", "162704.875000", "162704.875000", "162704.875000", "162744.828000", "162744.828000", "162744.828000", "162744.843000", "162744.843000", "162744.843000", "162744.843000", "162744.859000", "162744.859000", "162744.859000", "162744.859000", "162744.859000", "162744.859000", "162744.875000", "162744.875000", "162744.875000", "162744.875000", "162744.875000", "162744.875000", "162744.875000", "162824.828000", "162824.828000", "162824.828000", "162824.843000", "162824.843000", "162824.843000", "162824.843000", "162824.843000", "162824.859000", "162824.859000", "162824.859000", "162824.859000", "162824.859000", "162824.859000", "162824.859000", "162824.859000", "162824.875000", "162824.875000", "162824.875000", "162824.875000", "162844.828000", "162844.828000", "162844.828000", "162844.843000", "162844.843000", "162844.843000", "162844.843000", "162844.843000", "162844.843000", "162844.859000", "162924.828000", "162924.828000", "162924.828000", "162924.843000", "162924.843000", "162924.843000", "162924.843000", "162924.843000", "162924.843000", "162924.843000", "162924.859000", "162924.859000", "162924.859000", "162924.859000", "162924.859000", "162924.859000", "162924.859000", "162924.875000", "162924.875000", "162924.875000", "162951.859000", "162951.875000", "162951.875000", "162951.875000", "162951.875000", "162951.875000", "162951.890000", "162951.890000", "162951.890000", "162951.890000", "162951.890000", "162951.890000", "162951.890000", "162951.890000"],
      "InstanceNumber": [1, 2, 3, 4, 5, 6, 7, 8, 9, 10, 11, 12, 13, 14, 15, 16, 17, 18, 19, 20, 21, 22, 23, 24, 25, 26, 27, 28, 29, 30, 31, 32, 33, 34, 35, 36, 37, 38, 39, 40, 41, 42, 43, 44, 45, 46, 47, 48, 49, 50, 51, 52, 53, 54, 55, 56, 57, 58, 59, 60, 61, 62, 63, 64, 65, 66, 67, 68, 69, 70, 71, 72, 73, 74, 75, 76, 77, 78, 79, 80, 81, 82, 83, 84, 85, 86, 87, 88, 89, 90, 91, 92, 93, 94, 95, 96, 97, 98, 99, 100, 101, 102, 103, 104, 105, 106, 107, 108, 109, 110, 111, 112, 113, 114, 115, 116, 117, 118, 119, 120, 121, 122, 123, 124, 125, 126, 127, 128, 129, 130, 131, 132, 133, 134, 135, 136, 137, 138, 139, 140, 141, 142, 143, 144, 145, 146, 147, 148, 149, 150, 151, 152, 153, 154, 155, 156, 157, 158, 159, 160, 161, 162, 163, 164],
      "LargestImagePixelValue": [1964, 1685, 1670, 1645, 1634, 1654, 1641, 1647, 1655, 1640, 1633, 1642, 1630, 1632, 1646, 1636, 1634, 1627, 1655, 1641, 1644, 1618, 1650, 1620, 1627, 1618, 1633, 1628, 1635, 1608, 1621, 1628, 1622, 1623, 1620, 1632, 1622, 1584, 1579, 1587, 1657, 1619, 1596, 1623, 1629, 1625, 1615, 1589, 1621, 1603, 1624, 1617, 1601, 1596, 1600, 1606, 1608, 1595, 1603, 1593, 1607, 1589, 1597, 1596, 1594, 1604, 1587, 1592, 1575, 1601, 1598, 1616, 1597, 1599, 1603, 1609, 1589, 1590, 1590, 1583, 1585, 1596, 1616, 1577, 1598, 1593, 1627, 1606, 1621, 1627, 1614, 1605, 1614, 1626, 1631, 1627, 1656, 1631, 1620, 1613, 1611, 1615, 1618, 1611, 1614, 1615, 1631, 1622, 1634, 1634, 1651, 1641, 1632, 1628, 1642, 1623, 1584, 1601, 1614, 1586, 1600, 1612, 1605, 1599, 1603, 1596, 1620, 1584, 1609, 1606, 1587, 1604, 1605, 1595, 1623, 1618, 1598, 1605, 1603, 1592, 1590, 1591, 1612, 1632, 1599, 1620, 1614, 1609, 1616, 1607, 1594, 1616, 1616, 1617, 1610, 1593, 1608, 1609, 1631, 1614, 1623, 1605, 1597, 1602],
      "WindowCenter": [703.0, 700.0, 700.0, 699.0, 699.0, 698.0, 697.0, 697.0, 697.0, 697.0, 698.0, 699.0, 698.0, 698.0, 698.0, 699.0, 698.0, 698.0, 698.0, 698.0, 698.0, 699.0, 699.0, 700.0, 699.0, 699.0, 698.0, 698.0, 699.0, 698.0, 698.0, 698.0, 698.0, 698.0, 697.0, 697.0, 698.0, 698.0, 698.0, 697.0, 698.0, 698.0, 698.0, 699.0, 699.0, 698.0, 698.0, 698.0, 698.0, 697.0, 697.0, 698.0, 698.0, 698.0, 698.0, 698.0, 697.0, 696.0, 696.0, 697.0, 698.0, 698.0, 697.0, 697.0, 697.0, 697.0, 697.0, 697.0, 696.0, 697.0, 697.0, 697.0, 697.0, 697.0, 696.0, 696.0, 696.0, 697.0, 696.0, 696.0, 696.0, 697.0, 698.0, 696.0, 695.0, 695.0, 695.0, 696.0, 696.0, 697.0, 697.0, 697.0, 697.0, 697.0, 696.0, 696.0, 697.0, 698.0, 697.0, 696.0, 696.0, 696.0, 696.0, 697.0, 697.0, 697.0, 696.0, 696.0, 696.0, 696.0, 696.0, 697.0, 696.0, 697.0, 696.0, 698.0, 696.0, 696.0, 696.0, 696.0, 695.0, 696.0, 697.0, 696.0, 695.0, 694.0, 695.0, 697.0, 698.0, 696.0, 695.0, 695.0, 695.0, 695.0, 697.0, 696.0, 696.0, 696.0, 697.0, 697.0, 696.0, 696.0, 696.0, 697.0, 697.0, 697.0, 697.0, 696.0, 696.0, 696.0, 696.0, 697.0, 697.0, 696.0, 696.0, 696.0, 697.0, 696.0, 697.0, 697.0, 697.0, 696.0, 696.0, 697.0],
      "WindowWidth": [1535.0, 1524.0, 1524.0, 1523.0, 1521.0, 1519.0, 1518.0, 1516.0, 1517.0, 1517.0, 1518.0, 1521.0, 1519.0, 1519.0, 1519.0, 1521.0, 1521.0, 1519.0, 1520.0, 1520.0, 1519.0, 1521.0, 1522.0, 1525.0, 1523.0, 1522.0, 1520.0, 1520.0, 1522.0, 1518.0, 1520.0, 1518.0, 1521.0, 1518.0, 1516.0, 1518.0, 1520.0, 1520.0, 1520.0, 1517.0, 1520.0, 1518.0, 1520.0, 1521.0, 1523.0, 1518.0, 1520.0, 1519.0, 1518.0, 1516.0, 1516.0, 1519.0, 1519.0, 1520.0, 1518.0, 1518.0, 1516.0, 1514.0, 1515.0, 1517.0, 1518.0, 1519.0, 1516.0, 1518.0, 1517.0, 1517.0, 1517.0, 1516.0, 1515.0, 1518.0, 1517.0, 1518.0, 1518.0, 1516.0, 1515.0, 1515.0, 1514.0, 1516.0, 1513.0, 1514.0, 1515.0, 1517.0, 1519.0, 1513.0, 1511.0, 1510.0, 1509.0, 1514.0, 1515.0, 1518.0, 1518.0, 1518.0, 1517.0, 1517.0, 1514.0, 1513.0, 1517.0, 1519.0, 1516.0, 1514.0, 1514.0, 1513.0, 1514.0, 1516.0, 1516.0, 1516.0, 1515.0, 1514.0, 1513.0, 1515.0, 1514.0, 1517.0, 1515.0, 1518.0, 1515.0, 1521.0, 1514.0, 1514.0, 1516.0, 1513.0, 1513.0, 1514.0, 1516.0, 1514.0, 1511.0, 1509.0, 1513.0, 1517.0, 1520.0, 1514.0, 1510.0, 1511.0, 1511.0, 1512.0, 1517.0, 1515.0, 1516.0, 1515.0, 1517.0, 1516.0, 1513.0, 1514.0, 1515.0, 1518.0, 1516.0, 1518.0, 1517.0, 1515.0, 1513.0, 1514.0, 1515.0, 1518.0, 1517.0, 1515.0, 1516.0, 1515.0, 1516.0, 1516.0, 1518.0, 1517.0, 1516.0, 1515.0, 1515.0, 1516.0]
    },
    "slices": {}
  }
}