{
  "AcquisitionMatrixPE": 64,
  "AcquisitionNumber": 1,
  "AcquisitionTime": "16:43:43.065000",
  "BandwidthPerPixelPhaseEncode": 33.967,
  "BaseResolution": 64,
  "CoilCombinationMethod": "Sum of Squares",
  "CoilString": "C:HEA;HEP",
  "ConversionSoftware": "dcm2niix",
  "ConversionSoftwareVersion": "v1.0.20220720",
  "DerivedVendorReportedEchoSpacing": 0.000460005,
  "DeviceSerialNumber": "35193",
  "DwellTime": 3.1e-06,
  "EchoTime": 0.03,
  "EffectiveEchoSpacing": 0.000460005,
  "FlipAngle": 90,
  "HeudiconvVersion": "1.1.6",
  "ImageOrientationPatientDICOM": [1, 0, 0, 0, 1, 0],
  "ImageOrientationText": "Tra",
  "ImageType": [
    "ORIGINAL",
    "PRIMARY",
    "M",
    "ND",
    "MOSAIC"
],
  "ImagingFrequency": 123.254,
  "InPlanePhaseEncodingDirectionDICOM": "COL",
  "InstitutionAddress": "Xinjiekouwai Street No 19,Beijing,Haidian District,CN,100875",
  "InstitutionName": "BNU MRI Center",
  "InstitutionalDepartmentName": "Department",
  "MRAcquisitionType": "2D",
  "MagneticFieldStrength": 3,
  "Manufacturer": "Siemens",
  "ManufacturersModelName": "TrioTim",
  "MatrixCoilMode": "SENSE",
  "Modality": "MR",
  "NonlinearGradientCorrection": false,
  "PartialFourier": 1,
  "PatientPosition": "HFS",
  "PercentPhaseFOV": 100,
  "PercentSampling": 100,
  "PhaseEncodingDirection": "j-",
  "PhaseEncodingSteps": 64,
  "PhaseResolution": 1,
  "PixelBandwidth": 2520,
  "ProcedureStepDescription": "BNU_cst_2015^Guo.TaoMei",
  "ProtocolName": "ge_func_3x3x4_164",
  "PulseSequenceDetails": "%SiemensSeq%\\ep2d_bold",
  "ReceiveCoilName": "HeadMatrix",
  "ReconMatrixPE": 64,
  "RepetitionTime": 2,
  "SAR": 0.15707,
  "ScanOptions": "FS",
  "ScanningSequence": "EP",
  "SequenceName": "*epfid2d1_64",
  "SequenceVariant": "SK",
  "SeriesDescription": "ge_func_3x3x4_164",
  "SeriesNumber": 5,
  "ShimSetting": [-4462, -19119, -9920, 1450, -16, 359, 425, -249],
  "SliceThickness": 4,
  "SliceTiming": [0, 1.035, 0.0625, 1.095, 0.1225, 1.1575, 0.1825, 1.2175, 0.245, 1.2775, 0.305, 1.34, 0.365, 1.4, 0.4275, 1.46, 0.4875, 1.5225, 0.5475, 1.5825, 0.61, 1.6425, 0.67, 1.705, 0.73, 1.765, 0.7925, 1.825, 0.8525, 1.8875, 0.9125, 1.9475, 0.975],
  "SoftwareVersions": "syngo MR B17",
  "SpacingBetweenSlices": 4.6,
  "StationName": "MRC35193",
  "TaskName": "CognitiveControl",
  "TotalReadoutTime": 0.0289803,
  "TxRefAmp": 316.236,
  "dcmmeta_affine": [
    [-3.125, 0.0, 0.0, 108.77108764648438],
    [0.0, 3.125, 0.0, -76.634033203125],
    [0.0, 0.0, 4.599999904632568, -45.26264953613281],
    [0.0, 0.0, 0.0, 1.0]
],
  "dcmmeta_reorient_transform": [
    [0.0, -1.0, 0.0, 63.0],
    [1.0, 0.0, 0.0, 0.0],
    [0.0, 0.0, 1.0, 0.0],
    [0.0, 0.0, 0.0, 1.0]
],
  "dcmmeta_shape": [64, 64, 33, 164],
  "dcmmeta_slice_dim": 2,
  "dcmmeta_version": 0.6,
  "global": {
    "const": {
      "AcquisitionMatrix": [64, 0, 0, 64],
      "AngioFlag": "N",
      "BitsAllocated": 16,
      "BitsStored": 12,
      "Columns": 384,
      "EchoNumbers": 1,
      "EchoTime": 30.0,
      "EchoTrainLength": 1,
      "FlipAngle": 90.0,
      "HighBit": 11,
      "ImageOrientationPatient": [1.0, 0.0, 0.0, 0.0, 1.0, 0.0],
      "ImagePositionPatient": [-608.77108478546, -620.24096298218, -45.262649536133],
      "ImageType": [
        "ORIGINAL",
        "PRIMARY",
        "M",
        "ND",
        "MOSAIC"
],
      "ImagedNucleus": "1H",
      "ImagingFrequency": 123.253748,
      "InPlanePhaseEncodingDirection": "COL",
      "MRAcquisitionType": "2D",
      "MagneticFieldStrength": 3.0,
      "Manufacturer": "SIEMENS",
      "ManufacturerModelName": "TrioTim",
      "Modality": "MR",
      "NumberOfAverages": 1.0,
      "NumberOfPhaseEncodingSteps": 64,
      "PercentPhaseFieldOfView": 100.0,
      "PercentSampling": 100.0,
      "PerformedProcedureStepStartTime": "162221.531000",
      "PhotometricInterpretation": "MONOCHROME2",
      "PixelBandwidth": 2520.0,
      "PixelRepresentation": 0,
      "PixelSpacing": [3.125, 3.125],
      "ProtocolName": "ge_func_3x3x4_164",
      "RepetitionTime": 2000.0,
      "Rows": 384,
      "SAR": 0.15706957970542,
      "SamplesPerPixel": 1,
      "ScanOptions": "FS",
      "ScanningSequence": "EP",
      "SequenceName": "*epfid2d1_64",
      "SequenceVariant": "SK",
      "SeriesDescription": "ge_func_3x3x4_164",
      "SeriesNumber": 5,
      "SeriesTime": "164424.828000",
      "SliceLocation": -45.262649536133,
      "SliceThickness": 4.0,
      "SmallestImagePixelValue": 0,
      "SoftwareVersions": "syngo MR B17",
      "SpacingBetweenSlices": 4.5999999046326,
      "SpecificCharacterSet": "ISO_IR 100",
      "StudyID": "1",
      "StudyTime": "162221.468000",
      "TransmitCoilName": "Body",
      "VariableFlipAngleFlag": "N",
      "WindowCenterWidthExplanation": "Algo1",
      "dBdt": 0.0},
    "slices": {}
  },
  "time": {
    "samples": {
      "AcquisitionNumber": [1, 2, 3, 4, 5, 6, 7, 8, 9, 10, 11, 12, 13, 14, 15, 16, 17, 18, 19, 20, 21, 22, 23, 24, 25, 26, 27, 28, 29, 30, 31, 32, 33, 34, 35, 36, 37, 38, 39, 40, 41, 42, 43, 44, 45, 46, 47, 48, 49, 50, 51, 52, 53, 54, 55, 56, 57, 58, 59, 60, 61, 62, 63, 64, 65, 66, 67, 68, 69, 70, 71, 72, 73, 74, 75, 76, 77, 78, 79, 80, 81, 82, 83, 84, 85, 86, 87, 88, 89, 90, 91, 92, 93, 94, 95, 96, 97, 98, 99, 100, 101, 102, 103, 104, 105, 106, 107, 108, 109, 110, 111, 112, 113, 114, 115, 116, 117, 118, 119, 120, 121, 122, 123, 124, 125, 126, 127, 128, 129, 130, 131, 132, 133, 134, 135, 136, 137, 138, 139, 140, 141, 142, 143, 144, 145, 146, 147, 148, 149, 150, 151, 152, 153, 154, 155, 156, 157, 158, 159, 160, 161, 162, 163, 164],
      "AcquisitionTime": ["164343.065000", "164345.072500", "164347.082500", "164349.090000", "164351.097500", "164353.105000", "164355.115000", "164357.122500", "164359.130000", "164401.137500", "164403.145000", "164405.155000", "164407.162500", "164409.170000", "164411.177500", "164413.185000", "164415.195000", "164417.202500", "164419.210000", "164421.217500", "164423.225000", "164425.235000", "164427.242500", "164429.250000", "164431.257500", "164433.267500", "164435.275000", "164437.282500", "164439.290000", "164441.297500", "164443.307500", "164445.315000", "164447.322500", "164449.330000", "164451.337500", "164453.347500", "164455.355000", "164457.362500", "164459.370000", "164501.380000", "164503.387500", "164505.395000", "164507.402500", "164509.410000", "164511.420000", "164513.427500", "164515.435000", "164517.442500", "164519.450000", "164521.460000", "164523.467500", "164525.475000", "164527.482500", "164529.492500", "164531.500000", "164533.507500", "164535.515000", "164537.522500", "164539.532500", "164541.540000", "164543.547500", "164545.555000", "164547.562500", "164549.572500", "164551.580000", "164553.587500", "164555.595000", "164557.602500", "164559.612500", "164601.620000", "164603.627500", "164605.635000", "164607.645000", "164609.652500", "164611.660000", "164613.667500", "164615.675000", "164617.685000", "164619.692500", "164621.700000", "164623.707500", "164625.715000", "164627.725000", "164629.732500", "164631.740000", "164633.747500", "164635.757500", "164637.765000", "164639.772500", "164641.780000", "164643.787500", "164645.797500", "164647.805000", "164649.812500", "164651.820000", "164653.827500", "164655.837500", "164657.845000", "164659.852500", "164701.860000", "164703.870000", "164705.877500", "164707.885000", "164709.892500", "164711.900000", "164713.910000", "164715.917500", "164717.925000", "164719.932500", "164721.940000", "164723.950000", "164725.957500", "164727.965000", "164729.972500", "164731.980000", "164733.990000", "164735.997500", "164738.005000", "164740.012500", "164742.022500", "164744.030000", "164746.037500", "164748.045000", "164750.052500", "164752.062500", "164754.070000", "164756.077500", "164758.085000", "164800.092500", "164802.102500", "164804.110000", "164806.117500", "164808.125000", "164810.135000", "164812.142500", "164814.150000", "164816.157500", "164818.165000", "164820.175000", "164822.182500", "164824.190000", "164826.197500", "164828.205000", "164830.215000", "164832.222500", "164834.230000", "164836.237500", "164838.247500", "164840.255000", "164842.262500", "164844.270000", "164846.277500", "164848.287500", "164850.295000", "164852.302500", "164854.310000", "164856.317500", "164858.327500", "164900.335000", "164902.342500", "164904.350000", "164906.357500", "164908.367500", "164910.375000"],
      "ContentTime": ["164424.843000", "164424.843000", "164424.843000", "164424.843000", "164424.843000", "164424.843000", "164424.843000", "164424.859000", "164424.859000", "164424.859000", "164424.875000", "164424.875000", "164424.875000", "164424.875000", "164424.875000", "164424.875000", "164424.875000", "164424.875000", "164424.875000", "164424.890000", "164504.828000", "164504.828000", "164504.828000", "164504.843000", "164504.843000", "164504.843000", "164504.843000", "164504.843000", "164504.843000", "164504.843000", "164504.859000", "164504.859000", "164504.859000", "164504.859000", "164504.859000", "164504.859000", "164504.859000", "164504.875000", "164504.875000", "164504.875000", "164544.828000", "164544.828000", "164544.828000", "164544.843000", "164544.843000", "164544.843000", "164544.843000", "164544.843000", "164544.843000", "164544.859000", "164544.859000", "164544.859000", "164544.859000", "164544.859000", "164544.859000", "164544.859000", "164544.875000", "164544.875000", "164544.875000", "164544.875000", "164624.828000", "164624.828000", "164624.828000", "164624.843000", "164624.843000", "164624.843000", "164624.843000", "164624.843000", "164624.859000", "164624.859000", "164624.859000", "164624.875000", "164624.875000", "164624.890000", "164624.890000", "164624.890000", "164624.890000", "164624.906000", "164624.906000", "164624.906000", "164704.828000", "164704.828000", "164704.843000", "164704.843000", "164704.843000", "164704.843000", "164704.843000", "164704.843000", "164704.859000", "164704.859000", "164704.859000", "164704.859000", "164704.859000", "164704.859000", "164704.859000", "164704.859000", "164704.875000", "164704.875000", "164704.875000", "164704.875000", "164744.828000", "164744.828000", "164744.828000", "164744.843000", "164744.843000", "164744.843000", "164744.843000", "164744.843000", "164744.843000", "164744.843000", "164744.843000", "164744.859000", "164744.859000", "164744.859000", "164744.859000", "164744.859000", "164744.859000", "164744.859000", "164744.859000", "164744.875000", "164824.828000", "164824.828000", "164824.828000", "164824.843000", "164824.843000", "164824.843000", "164824.843000", "164824.843000", "164824.859000", "164824.859000", "164824.859000", "164824.859000", "164824.859000", "164824.859000", "164824.859000", "164824.859000", "164824.875000", "164824.875000", "164824.875000", "164824.875000", "164844.828000", "164844.828000", "164844.828000", "164844.843000", "164844.843000", "164844.843000", "164844.843000", "164844.843000", "164844.843000", "164844.843000", "164912.234000", "164912.250000", "164912.250000", "164912.250000", "164912.250000", "164912.250000", "164912.250000", "164912.250000", "164912.265000", "164912.265000", "164912.265000", "164912.265000", "164912.281000", "164912.281000"],
      "InstanceCreationTime": ["164424.843000", "164424.843000", "164424.843000", "164424.843000", "164424.843000", "164424.843000", "164424.843000", "164424.859000", "164424.859000", "164424.859000", "164424.875000", "164424.875000", "164424.875000", "164424.875000", "164424.875000", "164424.875000", "164424.875000", "164424.875000", "164424.875000", "164424.890000", "164504.828000", "164504.828000", "164504.828000", "164504.843000", "164504.843000", "164504.843000", "164504.843000", "164504.843000", "164504.843000", "164504.843000", "164504.859000", "164504.859000", "164504.859000", "164504.859000", "164504.859000", "164504.859000", "164504.859000", "164504.875000", "164504.875000", "164504.875000", "164544.828000", "164544.828000", "164544.828000", "164544.843000", "164544.843000", "164544.843000", "164544.843000", "164544.843000", "164544.843000", "164544.859000", "164544.859000", "164544.859000", "164544.859000", "164544.859000", "164544.859000", "164544.859000", "164544.875000", "164544.875000", "164544.875000", "164544.875000", "164624.828000", "164624.828000", "164624.828000", "164624.843000", "164624.843000", "164624.843000", "164624.843000", "164624.843000", "164624.859000", "164624.859000", "164624.859000", "164624.875000", "164624.875000", "164624.890000", "164624.890000", "164624.890000", "164624.890000", "164624.906000", "164624.906000", "164624.906000", "164704.828000", "164704.828000", "164704.843000", "164704.843000", "164704.843000", "164704.843000", "164704.843000", "164704.843000", "164704.859000", "164704.859000", "164704.859000", "164704.859000", "164704.859000", "164704.859000", "164704.859000", "164704.859000", "164704.875000", "164704.875000", "164704.875000", "164704.875000", "164744.828000", "164744.828000", "164744.828000", "164744.843000", "164744.843000", "164744.843000", "164744.843000", "164744.843000", "164744.843000", "164744.843000", "164744.843000", "164744.859000", "164744.859000", "164744.859000", "164744.859000", "164744.859000", "164744.859000", "164744.859000", "164744.859000", "164744.875000", "164824.828000", "164824.828000", "164824.828000", "164824.843000", "164824.843000", "164824.843000", "164824.843000", "164824.843000", "164824.859000", "164824.859000", "164824.859000", "164824.859000", "164824.859000", "164824.859000", "164824.859000", "164824.859000", "164824.875000", "164824.875000", "164824.875000", "164824.875000", "164844.828000", "164844.828000", "164844.828000", "164844.843000", "164844.843000", "164844.843000", "164844.843000", "164844.843000", "164844.843000", "164844.843000", "164912.234000", "164912.250000", "164912.250000", "164912.250000", "164912.250000", "164912.250000", "164912.250000", "164912.250000", "164912.265000", "164912.265000", "164912.265000", "164912.265000", "164912.281000", "164912.281000"],
      "InstanceNumber": [1, 2, 3, 4, 5, 6, 7, 8, 9, 10, 11, 12, 13, 14, 15, 16, 17, 18, 19, 20, 21, 22, 23, 24, 25, 26, 27, 28, 29, 30, 31, 32, 33, 34, 35, 36, 37, 38, 39, 40, 41, 42, 43, 44, 45, 46, 47, 48, 49, 50, 51, 52, 53, 54, 55, 56, 57, 58, 59, 60, 61, 62, 63, 64, 65, 66, 67, 68, 69, 70, 71, 72, 73, 74, 75, 76, 77, 78, 79, 80, 81, 82, 83, 84, 85, 86, 87, 88, 89, 90, 91, 92, 93, 94, 95, 96, 97, 98, 99, 100, 101, 102, 103, 104, 105, 106, 107, 108, 109, 110, 111, 112, 113, 114, 115, 116, 117, 118, 119, 120, 121, 122, 123, 124, 125, 126, 127, 128, 129, 130, 131, 132, 133, 134, 135, 136, 137, 138, 139, 140, 141, 142, 143, 144, 145, 146, 147, 148, 149, 150, 151, 152, 153, 154, 155, 156, 157, 158, 159, 160, 161, 162, 163, 164],
      "LargestImagePixelValue": [1651, 1617, 1643, 1680, 1610, 1610, 1605, 1595, 1606, 1592, 1613, 1626, 1602, 1603, 1603, 1605, 1619, 1611, 1591, 1614, 1621, 1632, 1597, 1596, 1600, 1621, 1605, 1601, 1603, 1619, 1629, 1614, 1609, 1612, 1612, 1604, 1596, 1627, 1615, 1612, 1627, 1631, 1625, 1636, 1625, 1615, 1605, 1631, 1621, 1602, 1616, 1606, 1605, 1619, 1616, 1628, 1607, 1613, 1604, 1620, 1600, 1586, 1600, 1591, 1606, 1602, 1604, 1590, 1620, 1623, 1620, 1633, 1622, 1605, 1605, 1622, 1673, 1648, 1656, 1653, 1639, 1626, 1627, 1628, 1625, 1623, 1638, 1641, 1651, 1653, 1624, 1652, 1642, 1657, 1646, 1644, 1654, 1646, 1654, 1638, 1646, 1629, 1645, 1642, 1655, 1644, 1660, 1649, 1635, 1636, 1647, 1674, 1657, 1651, 1650, 1630, 1630, 1652, 1651, 1652, 1639, 1649, 1647, 1675, 1658, 1648, 1651, 1649, 1655, 1651, 1634, 1641, 1628, 1643, 1649, 1619, 1632, 1670, 1634, 1665, 1670, 1652, 1629, 1637, 1624, 1648, 1641, 1619, 1629, 1630, 1634, 1624, 1613, 1620, 1613, 1629, 1620, 1645, 1635, 1629, 1638, 1648, 1627, 1621],
      "WindowCenter": [700.0, 698.0, 697.0, 697.0, 696.0, 696.0, 695.0, 695.0, 695.0, 694.0, 695.0, 695.0, 695.0, 695.0, 695.0, 696.0, 696.0, 695.0, 695.0, 695.0, 696.0, 697.0, 696.0, 696.0, 697.0, 697.0, 697.0, 696.0, 696.0, 696.0, 697.0, 696.0, 696.0, 696.0, 696.0, 695.0, 696.0, 696.0, 696.0, 696.0, 696.0, 696.0, 696.0, 696.0, 696.0, 696.0, 697.0, 697.0, 696.0, 696.0, 696.0, 696.0, 696.0, 697.0, 697.0, 697.0, 696.0, 697.0, 697.0, 697.0, 696.0, 696.0, 697.0, 697.0, 696.0, 696.0, 696.0, 696.0, 697.0, 696.0, 696.0, 696.0, 696.0, 696.0, 696.0, 697.0, 697.0, 696.0, 696.0, 697.0, 697.0, 696.0, 697.0, 697.0, 697.0, 697.0, 697.0, 697.0, 698.0, 698.0, 697.0, 697.0, 697.0, 697.0, 697.0, 697.0, 697.0, 697.0, 697.0, 697.0, 696.0, 696.0, 696.0, 697.0, 697.0, 697.0, 697.0, 697.0, 697.0, 696.0, 697.0, 698.0, 697.0, 697.0, 697.0, 697.0, 698.0, 698.0, 697.0, 696.0, 697.0, 697.0, 697.0, 697.0, 697.0, 697.0, 697.0, 697.0, 698.0, 697.0, 697.0, 697.0, 697.0, 697.0, 697.0, 697.0, 697.0, 698.0, 697.0, 698.0, 698.0, 698.0, 697.0, 697.0, 697.0, 698.0, 699.0, 698.0, 697.0, 697.0, 697.0, 698.0, 698.0, 698.0, 698.0, 698.0, 698.0, 698.0, 697.0, 697.0, 697.0, 698.0, 698.0, 698.0],
      "WindowWidth": [1527.0, 1520.0, 1519.0, 1519.0, 1515.0, 1514.0, 1511.0, 1511.0, 1512.0, 1510.0, 1511.0, 1512.0, 1512.0, 1513.0, 1513.0, 1515.0, 1514.0, 1513.0, 1512.0, 1513.0, 1515.0, 1517.0, 1516.0, 1515.0, 1517.0, 1517.0, 1517.0, 1515.0, 1515.0, 1516.0, 1517.0, 1516.0, 1515.0, 1515.0, 1514.0, 1514.0, 1514.0, 1516.0, 1516.0, 1515.0, 1514.0, 1515.0, 1516.0, 1515.0, 1514.0, 1516.0, 1516.0, 1518.0, 1516.0, 1516.0, 1516.0, 1516.0, 1515.0, 1517.0, 1517.0, 1516.0, 1515.0, 1517.0, 1519.0, 1518.0, 1515.0, 1515.0, 1517.0, 1517.0, 1516.0, 1514.0, 1514.0, 1516.0, 1517.0, 1516.0, 1516.0, 1516.0, 1516.0, 1515.0, 1516.0, 1517.0, 1519.0, 1516.0, 1516.0, 1517.0, 1517.0, 1515.0, 1517.0, 1517.0, 1518.0, 1518.0, 1517.0, 1519.0, 1521.0, 1520.0, 1518.0, 1517.0, 1517.0, 1519.0, 1518.0, 1518.0, 1518.0, 1519.0, 1519.0, 1517.0, 1516.0, 1515.0, 1516.0, 1517.0, 1518.0, 1518.0, 1519.0, 1517.0, 1517.0, 1516.0, 1518.0, 1520.0, 1518.0, 1518.0, 1518.0, 1519.0, 1522.0, 1519.0, 1517.0, 1516.0, 1516.0, 1518.0, 1518.0, 1519.0, 1518.0, 1518.0, 1519.0, 1519.0, 1519.0, 1518.0, 1518.0, 1518.0, 1518.0, 1518.0, 1517.0, 1517.0, 1517.0, 1520.0, 1518.0, 1520.0, 1520.0, 1520.0, 1517.0, 1518.0, 1519.0, 1521.0, 1522.0, 1520.0, 1519.0, 1518.0, 1519.0, 1519.0, 1520.0, 1520.0, 1519.0, 1521.0, 1520.0, 1519.0, 1518.0, 1517.0, 1518.0, 1521.0, 1520.0, 1522.0]
    },
    "slices": {}
  }
}