{
  "AcquisitionMatrixPE": 64,
  "AcquisitionNumber": 1,
  "AcquisitionTime": "15:56:1.852500",
  "BandwidthPerPixelPhaseEncode": 33.967,
  "BaseResolution": 64,
  "CoilCombinationMethod": "Sum of Squares",
  "CoilString": "C:HEA;HEP",
  "ConversionSoftware": "dcm2niix",
  "ConversionSoftwareVersion": "v1.0.20220720",
  "DerivedVendorReportedEchoSpacing": 0.000460005,
  "DeviceSerialNumber": "35193",
  "DwellTime": 3.1e-06,
  "EchoTime": 0.03,
  "EffectiveEchoSpacing": 0.000460005,
  "FlipAngle": 90,
  "HeudiconvVersion": "1.1.6",
  "ImageOrientationPatientDICOM": [1, 0, 0, 0, 1, 0],
  "ImageOrientationText": "Tra",
  "ImageType": [
    "ORIGINAL",
    "PRIMARY",
    "M",
    "ND",
    "MOSAIC"
],
  "ImagingFrequency": 123.254,
  "InPlanePhaseEncodingDirectionDICOM": "COL",
  "InstitutionAddress": "Xinjiekouwai Street No 19,Beijing,Haidian District,CN,100875",
  "InstitutionName": "BNU MRI Center",
  "InstitutionalDepartmentName": "Department",
  "MRAcquisitionType": "2D",
  "MagneticFieldStrength": 3,
  "Manufacturer": "Siemens",
  "ManufacturersModelName": "TrioTim",
  "MatrixCoilMode": "SENSE",
  "Modality": "MR",
  "NonlinearGradientCorrection": false,
  "PartialFourier": 1,
  "PatientPosition": "HFS",
  "PercentPhaseFOV": 100,
  "PercentSampling": 100,
  "PhaseEncodingDirection": "j-",
  "PhaseEncodingSteps": 64,
  "PhaseResolution": 1,
  "PixelBandwidth": 2520,
  "ProcedureStepDescription": "BNU_cst_2015^Guo.TaoMei",
  "ProtocolName": "ge_func_3x3x4_164",
  "PulseSequenceDetails": "%SiemensSeq%\\ep2d_bold",
  "ReceiveCoilName": "HeadMatrix",
  "ReconMatrixPE": 64,
  "RepetitionTime": 2,
  "SAR": 0.14179,
  "ScanOptions": "FS",
  "ScanningSequence": "EP",
  "SequenceName": "*epfid2d1_64",
  "SequenceVariant": "SK",
  "SeriesDescription": "ge_func_3x3x4_164",
  "SeriesNumber": 2,
  "ShimSetting": [-4498, -19440, -9853, 652, 10, -492, -102, 28],
  "SliceThickness": 4,
  "SliceTiming": [0, 1.0325, 0.06, 1.095, 0.12, 1.155, 0.1825, 1.215, 0.2425, 1.2775, 0.3025, 1.3375, 0.365, 1.3975, 0.425, 1.46, 0.485, 1.52, 0.5475, 1.58, 0.6075, 1.6425, 0.6675, 1.7025, 0.73, 1.7625, 0.79, 1.825, 0.85, 1.885, 0.9125, 1.945, 0.9725],
  "SoftwareVersions": "syngo MR B17",
  "SpacingBetweenSlices": 4.6,
  "StationName": "MRC35193",
  "TaskName": "CognitiveControl",
  "TotalReadoutTime": 0.0289803,
  "TxRefAmp": 338.266,
  "dcmmeta_affine": [
    [-3.125, 0.0, 0.0, 107.42168426513672],
    [0.0, 3.125, 0.0, -93.50150299072266],
    [0.0, 0.0, 4.599999904632568, -58.08192825317383],
    [0.0, 0.0, 0.0, 1.0]
],
  "dcmmeta_reorient_transform": [
    [0.0, -1.0, 0.0, 63.0],
    [1.0, 0.0, 0.0, 0.0],
    [0.0, 0.0, 1.0, 0.0],
    [0.0, 0.0, 0.0, 1.0]
],
  "dcmmeta_shape": [64, 64, 33, 164],
  "dcmmeta_slice_dim": 2,
  "dcmmeta_version": 0.6,
  "global": {
    "const": {
      "AcquisitionMatrix": [64, 0, 0, 64],
      "AngioFlag": "N",
      "BitsAllocated": 16,
      "BitsStored": 12,
      "Columns": 384,
      "EchoNumbers": 1,
      "EchoTime": 30.0,
      "EchoTrainLength": 1,
      "FlipAngle": 90.0,
      "HighBit": 11,
      "ImageOrientationPatient": [1.0, 0.0, 0.0, 0.0, 1.0, 0.0],
      "ImagePositionPatient": [-607.42168664932, -603.37349390984, -58.081928253174],
      "ImageType": [
        "ORIGINAL",
        "PRIMARY",
        "M",
        "ND",
        "MOSAIC"
],
      "ImagedNucleus": "1H",
      "ImagingFrequency": 123.253958,
      "InPlanePhaseEncodingDirection": "COL",
      "MRAcquisitionType": "2D",
      "MagneticFieldStrength": 3.0,
      "Manufacturer": "SIEMENS",
      "ManufacturerModelName": "TrioTim",
      "Modality": "MR",
      "NumberOfAverages": 1.0,
      "NumberOfPhaseEncodingSteps": 64,
      "PercentPhaseFieldOfView": 100.0,
      "PercentSampling": 100.0,
      "PerformedProcedureStepStartTime": "155333.390000",
      "PhotometricInterpretation": "MONOCHROME2",
      "PixelBandwidth": 2520.0,
      "PixelRepresentation": 0,
      "PixelSpacing": [3.125, 3.125],
      "ProtocolName": "ge_func_3x3x4_164",
      "RepetitionTime": 2000.0,
      "Rows": 384,
      "SAR": 0.1417901703318,
      "SamplesPerPixel": 1,
      "ScanOptions": "FS",
      "ScanningSequence": "EP",
      "SequenceName": "*epfid2d1_64",
      "SequenceVariant": "SK",
      "SeriesDescription": "ge_func_3x3x4_164",
      "SeriesNumber": 2,
      "SeriesTime": "155652.765000",
      "SliceLocation": -58.081928253174,
      "SliceThickness": 4.0,
      "SmallestImagePixelValue": 0,
      "SoftwareVersions": "syngo MR B17",
      "SpacingBetweenSlices": 4.6000000238419,
      "SpecificCharacterSet": "ISO_IR 100",
      "StudyID": "1",
      "StudyTime": "155333.312000",
      "TransmitCoilName": "Body",
      "VariableFlipAngleFlag": "N",
      "WindowCenterWidthExplanation": "Algo1",
      "dBdt": 0.0},
    "slices": {}
  },
  "time": {
    "samples": {
      "AcquisitionNumber": [1, 2, 3, 4, 5, 6, 7, 8, 9, 10, 11, 12, 13, 14, 15, 16, 17, 18, 19, 20, 21, 22, 23, 24, 25, 26, 27, 28, 29, 30, 31, 32, 33, 34, 35, 36, 37, 38, 39, 40, 41, 42, 43, 44, 45, 46, 47, 48, 49, 50, 51, 52, 53, 54, 55, 56, 57, 58, 59, 60, 61, 62, 63, 64, 65, 66, 67, 68, 69, 70, 71, 72, 73, 74, 75, 76, 77, 78, 79, 80, 81, 82, 83, 84, 85, 86, 87, 88, 89, 90, 91, 92, 93, 94, 95, 96, 97, 98, 99, 100, 101, 102, 103, 104, 105, 106, 107, 108, 109, 110, 111, 112, 113, 114, 115, 116, 117, 118, 119, 120, 121, 122, 123, 124, 125, 126, 127, 128, 129, 130, 131, 132, 133, 134, 135, 136, 137, 138, 139, 140, 141, 142, 143, 144, 145, 146, 147, 148, 149, 150, 151, 152, 153, 154, 155, 156, 157, 158, 159, 160, 161, 162, 163, 164],
      "AcquisitionTime": ["155601.852500", "155603.860000", "155605.867500", "155607.875000", "155609.882500", "155611.892500", "155613.900000", "155615.907500", "155617.915000", "155619.925000", "155621.932500", "155623.940000", "155625.947500", "155627.955000", "155629.965000", "155631.972500", "155633.980000", "155635.987500", "155637.995000", "155640.005000", "155642.012500", "155644.020000", "155646.027500", "155648.037500", "155650.045000", "155652.052500", "155654.060000", "155656.067500", "155658.077500", "155700.085000", "155702.092500", "155704.100000", "155706.107500", "155708.117500", "155710.125000", "155712.132500", "155714.140000", "155716.147500", "155718.157500", "155720.165000", "155722.172500", "155724.180000", "155726.190000", "155728.197500", "155730.205000", "155732.212500", "155734.220000", "155736.230000", "155738.237500", "155740.245000", "155742.252500", "155744.260000", "155746.270000", "155748.277500", "155750.285000", "155752.292500", "155754.302500", "155756.310000", "155758.317500", "155800.325000", "155802.332500", "155804.342500", "155806.350000", "155808.357500", "155810.365000", "155812.372500", "155814.382500", "155816.390000", "155818.397500", "155820.405000", "155822.415000", "155824.422500", "155826.430000", "155828.437500", "155830.445000", "155832.455000", "155834.462500", "155836.470000", "155838.477500", "155840.485000", "155842.495000", "155844.502500", "155846.510000", "155848.517500", "155850.525000", "155852.535000", "155854.542500", "155856.550000", "155858.557500", "155900.567500", "155902.575000", "155904.582500", "155906.590000", "155908.597500", "155910.607500", "155912.615000", "155914.622500", "155916.630000", "155918.637500", "155920.647500", "155922.655000", "155924.662500", "155926.670000", "155928.680000", "155930.687500", "155932.695000", "155934.702500", "155936.710000", "155938.720000", "155940.727500", "155942.735000", "155944.742500", "155946.750000", "155948.760000", "155950.767500", "155952.775000", "155954.782500", "155956.792500", "155958.800000", "160000.807500", "160002.815000", "160004.822500", "160006.832500", "160008.840000", "160010.847500", "160012.855000", "160014.862500", "160016.872500", "160018.880000", "160020.887500", "160022.895000", "160024.902500", "160026.912500", "160028.920000", "160030.927500", "160032.935000", "160034.945000", "160036.952500", "160038.960000", "160040.967500", "160042.975000", "160044.985000", "160046.992500", "160049.000000", "160051.007500", "160053.015000", "160055.025000", "160057.032500", "160059.040000", "160101.047500", "160103.057500", "160105.065000", "160107.072500", "160109.080000", "160111.087500", "160113.097500", "160115.105000", "160117.112500", "160119.120000", "160121.127500", "160123.137500", "160125.145000", "160127.152500", "160129.160000"],
      "ContentTime": ["155652.781000", "155652.781000", "155652.781000", "155652.781000", "155652.781000", "155652.781000", "155652.781000", "155652.781000", "155652.796000", "155652.796000", "155652.796000", "155652.796000", "155652.796000", "155652.796000", "155652.796000", "155652.796000", "155652.812000", "155652.812000", "155652.812000", "155652.812000", "155652.812000", "155652.812000", "155652.828000", "155652.828000", "155732.750000", "155732.765000", "155732.765000", "155732.765000", "155732.765000", "155732.765000", "155732.765000", "155732.765000", "155732.765000", "155732.781000", "155732.781000", "155732.781000", "155732.781000", "155732.781000", "155732.781000", "155732.781000", "155732.781000", "155732.796000", "155732.796000", "155732.796000", "155812.750000", "155812.765000", "155812.765000", "155812.765000", "155812.765000", "155812.765000", "155812.765000", "155812.765000", "155812.781000", "155812.781000", "155812.796000", "155812.796000", "155812.796000", "155812.796000", "155812.796000", "155812.796000", "155812.796000", "155812.796000", "155812.812000", "155812.812000", "155852.750000", "155852.765000", "155852.765000", "155852.765000", "155852.781000", "155852.781000", "155852.781000", "155852.796000", "155852.796000", "155852.796000", "155852.796000", "155852.796000", "155852.796000", "155852.796000", "155852.796000", "155852.812000", "155852.812000", "155852.812000", "155852.812000", "155852.812000", "155932.750000", "155932.765000", "155932.765000", "155932.765000", "155932.765000", "155932.781000", "155932.781000", "155932.781000", "155932.781000", "155932.796000", "155932.796000", "155932.796000", "155932.796000", "155932.796000", "155932.796000", "155932.796000", "155932.796000", "155932.812000", "155932.812000", "155932.812000", "160012.750000", "160012.765000", "160012.765000", "160012.765000", "160012.765000", "160012.765000", "160012.781000", "160012.781000", "160012.781000", "160012.781000", "160012.796000", "160012.796000", "160012.796000", "160012.796000", "160012.796000", "160012.796000", "160012.812000", "160012.812000", "160012.812000", "160012.812000", "160052.750000", "160052.765000", "160052.765000", "160052.765000", "160052.765000", "160052.781000", "160052.781000", "160052.781000", "160052.781000", "160052.781000", "160052.781000", "160052.781000", "160052.796000", "160052.796000", "160052.796000", "160052.796000", "160052.796000", "160052.796000", "160052.796000", "160052.796000", "160130.906000", "160130.906000", "160130.906000", "160130.921000", "160130.921000", "160130.921000", "160130.921000", "160130.921000", "160130.921000", "160130.921000", "160130.937000", "160130.937000", "160130.937000", "160130.937000", "160130.937000", "160130.937000", "160130.937000", "160130.937000", "160130.953000", "160130.953000"],
      "InstanceCreationTime": ["155652.781000", "155652.781000", "155652.781000", "155652.781000", "155652.781000", "155652.781000", "155652.781000", "155652.781000", "155652.796000", "155652.796000", "155652.796000", "155652.796000", "155652.796000", "155652.796000", "155652.796000", "155652.796000", "155652.812000", "155652.812000", "155652.812000", "155652.812000", "155652.812000", "155652.812000", "155652.828000", "155652.828000", "155732.750000", "155732.765000", "155732.765000", "155732.765000", "155732.765000", "155732.765000", "155732.765000", "155732.765000", "155732.765000", "155732.781000", "155732.781000", "155732.781000", "155732.781000", "155732.781000", "155732.781000", "155732.781000", "155732.781000", "155732.796000", "155732.796000", "155732.796000", "155812.750000", "155812.765000", "155812.765000", "155812.765000", "155812.765000", "155812.765000", "155812.765000", "155812.765000", "155812.781000", "155812.781000", "155812.796000", "155812.796000", "155812.796000", "155812.796000", "155812.796000", "155812.796000", "155812.796000", "155812.796000", "155812.812000", "155812.812000", "155852.750000", "155852.765000", "155852.765000", "155852.765000", "155852.781000", "155852.781000", "155852.781000", "155852.796000", "155852.796000", "155852.796000", "155852.796000", "155852.796000", "155852.796000", "155852.796000", "155852.796000", "155852.812000", "155852.812000", "155852.812000", "155852.812000", "155852.812000", "155932.750000", "155932.765000", "155932.765000", "155932.765000", "155932.765000", "155932.781000", "155932.781000", "155932.781000", "155932.781000", "155932.796000", "155932.796000", "155932.796000", "155932.796000", "155932.796000", "155932.796000", "155932.796000", "155932.796000", "155932.812000", "155932.812000", "155932.812000", "160012.750000", "160012.765000", "160012.765000", "160012.765000", "160012.765000", "160012.765000", "160012.781000", "160012.781000", "160012.781000", "160012.781000", "160012.796000", "160012.796000", "160012.796000", "160012.796000", "160012.796000", "160012.796000", "160012.812000", "160012.812000", "160012.812000", "160012.812000", "160052.750000", "160052.765000", "160052.765000", "160052.765000", "160052.765000", "160052.781000", "160052.781000", "160052.781000", "160052.781000", "160052.781000", "160052.781000", "160052.781000", "160052.796000", "160052.796000", "160052.796000", "160052.796000", "160052.796000", "160052.796000", "160052.796000", "160052.796000", "160130.906000", "160130.906000", "160130.906000", "160130.921000", "160130.921000", "160130.921000", "160130.921000", "160130.921000", "160130.921000", "160130.921000", "160130.937000", "160130.937000", "160130.937000", "160130.937000", "160130.937000", "160130.937000", "160130.937000", "160130.937000", "160130.953000", "160130.953000"],
      "InstanceNumber": [1, 2, 3, 4, 5, 6, 7, 8, 9, 10, 11, 12, 13, 14, 15, 16, 17, 18, 19, 20, 21, 22, 23, 24, 25, 26, 27, 28, 29, 30, 31, 32, 33, 34, 35, 36, 37, 38, 39, 40, 41, 42, 43, 44, 45, 46, 47, 48, 49, 50, 51, 52, 53, 54, 55, 56, 57, 58, 59, 60, 61, 62, 63, 64, 65, 66, 67, 68, 69, 70, 71, 72, 73, 74, 75, 76, 77, 78, 79, 80, 81, 82, 83, 84, 85, 86, 87, 88, 89, 90, 91, 92, 93, 94, 95, 96, 97, 98, 99, 100, 101, 102, 103, 104, 105, 106, 107, 108, 109, 110, 111, 112, 113, 114, 115, 116, 117, 118, 119, 120, 121, 122, 123, 124, 125, 126, 127, 128, 129, 130, 131, 132, 133, 134, 135, 136, 137, 138, 139, 140, 141, 142, 143, 144, 145, 146, 147, 148, 149, 150, 151, 152, 153, 154, 155, 156, 157, 158, 159, 160, 161, 162, 163, 164],
      "LargestImagePixelValue": [1963, 1913, 1860, 1849, 1844, 1850, 1854, 1830, 1852, 1840, 1849, 1828, 1830, 1864, 1836, 1824, 1852, 1821, 1876, 1831, 1839, 1847, 1853, 1832, 1841, 1829, 1817, 1834, 1854, 1851, 1814, 1832, 1848, 1839, 1859, 1822, 1815, 1846, 1832, 1851, 1846, 1845, 1847, 1836, 1844, 1840, 1842, 1847, 1846, 1844, 1846, 1826, 1836, 1875, 1821, 1812, 1819, 1818, 1807, 1817, 1842, 1831, 1829, 1819, 1821, 1823, 1827, 1822, 1835, 1843, 1826, 1835, 1802, 1800, 1838, 1824, 1836, 1810, 1827, 1815, 1827, 1811, 1813, 1800, 1808, 1810, 1811, 1823, 1813, 1804, 1809, 1814, 1818, 1873, 1851, 1812, 1813, 1835, 1810, 1816, 1816, 1818, 1834, 1816, 1828, 1823, 1804, 1830, 1822, 1816, 1833, 1807, 1830, 1802, 1815, 1820, 1820, 1817, 1825, 1818, 1832, 1818, 1833, 1818, 1839, 1822, 1831, 1826, 1805, 1833, 1790, 1807, 1829, 1811, 1804, 1812, 1798, 1807, 1811, 1806, 1799, 1798, 1837, 1813, 1819, 1836, 1809, 1827, 1824, 1850, 1854, 1887, 1853, 1873, 1864, 1863, 1871, 1853, 1849, 1844, 1846, 1852, 1846, 1852],
      "WindowCenter": [741.0, 739.0, 738.0, 738.0, 738.0, 737.0, 737.0, 736.0, 737.0, 737.0, 737.0, 737.0, 737.0, 738.0, 737.0, 738.0, 737.0, 736.0, 737.0, 736.0, 735.0, 737.0, 737.0, 736.0, 735.0, 735.0, 736.0, 735.0, 736.0, 736.0, 736.0, 736.0, 736.0, 736.0, 737.0, 737.0, 735.0, 735.0, 735.0, 735.0, 734.0, 734.0, 735.0, 735.0, 735.0, 735.0, 735.0, 734.0, 734.0, 735.0, 735.0, 734.0, 734.0, 733.0, 733.0, 733.0, 733.0, 733.0, 733.0, 734.0, 733.0, 733.0, 733.0, 733.0, 733.0, 734.0, 735.0, 734.0, 733.0, 733.0, 733.0, 732.0, 731.0, 731.0, 732.0, 734.0, 734.0, 733.0, 734.0, 734.0, 733.0, 733.0, 733.0, 734.0, 732.0, 731.0, 733.0, 733.0, 732.0, 731.0, 731.0, 732.0, 736.0, 737.0, 736.0, 733.0, 733.0, 733.0, 730.0, 730.0, 731.0, 732.0, 734.0, 734.0, 734.0, 735.0, 734.0, 733.0, 733.0, 735.0, 734.0, 734.0, 734.0, 734.0, 735.0, 734.0, 734.0, 733.0, 734.0, 735.0, 735.0, 734.0, 735.0, 735.0, 735.0, 735.0, 734.0, 734.0, 735.0, 735.0, 734.0, 734.0, 734.0, 733.0, 733.0, 734.0, 733.0, 734.0, 735.0, 735.0, 734.0, 733.0, 734.0, 734.0, 734.0, 734.0, 735.0, 736.0, 735.0, 734.0, 734.0, 735.0, 734.0, 734.0, 735.0, 735.0, 736.0, 737.0, 736.0, 736.0, 736.0, 736.0, 736.0, 735.0],
      "WindowWidth": [1605.0, 1600.0, 1598.0, 1597.0, 1596.0, 1595.0, 1595.0, 1592.0, 1595.0, 1595.0, 1594.0, 1595.0, 1595.0, 1597.0, 1596.0, 1597.0, 1595.0, 1592.0, 1594.0, 1591.0, 1589.0, 1594.0, 1594.0, 1591.0, 1589.0, 1590.0, 1591.0, 1588.0, 1592.0, 1592.0, 1592.0, 1591.0, 1592.0, 1593.0, 1594.0, 1593.0, 1590.0, 1588.0, 1588.0, 1590.0, 1587.0, 1587.0, 1588.0, 1588.0, 1589.0, 1589.0, 1590.0, 1586.0, 1587.0, 1589.0, 1588.0, 1587.0, 1585.0, 1585.0, 1583.0, 1583.0, 1584.0, 1583.0, 1583.0, 1586.0, 1584.0, 1583.0, 1583.0, 1584.0, 1584.0, 1586.0, 1589.0, 1586.0, 1583.0, 1585.0, 1583.0, 1579.0, 1579.0, 1577.0, 1580.0, 1586.0, 1585.0, 1584.0, 1586.0, 1586.0, 1584.0, 1584.0, 1584.0, 1585.0, 1580.0, 1579.0, 1583.0, 1583.0, 1581.0, 1579.0, 1576.0, 1582.0, 1591.0, 1593.0, 1591.0, 1584.0, 1583.0, 1582.0, 1575.0, 1576.0, 1577.0, 1580.0, 1586.0, 1586.0, 1586.0, 1587.0, 1585.0, 1584.0, 1583.0, 1587.0, 1586.0, 1587.0, 1585.0, 1585.0, 1588.0, 1587.0, 1585.0, 1582.0, 1587.0, 1590.0, 1587.0, 1586.0, 1588.0, 1589.0, 1589.0, 1587.0, 1587.0, 1586.0, 1588.0, 1587.0, 1585.0, 1586.0, 1585.0, 1583.0, 1583.0, 1585.0, 1582.0, 1585.0, 1587.0, 1587.0, 1585.0, 1584.0, 1585.0, 1584.0, 1585.0, 1584.0, 1589.0, 1590.0, 1587.0, 1585.0, 1587.0, 1588.0, 1586.0, 1587.0, 1588.0, 1589.0, 1591.0, 1594.0, 1590.0, 1590.0, 1592.0, 1591.0, 1591.0, 1588.0]
    },
    "slices": {}
  }
}