{
  "AcquisitionMatrixPE": 64,
  "AcquisitionNumber": 1,
  "AcquisitionTime": "16:08:50.817500",
  "BandwidthPerPixelPhaseEncode": 33.967,
  "BaseResolution": 64,
  "CoilCombinationMethod": "Sum of Squares",
  "CoilString": "C:HEA;HEP",
  "ConversionSoftware": "dcm2niix",
  "ConversionSoftwareVersion": "v1.0.20220720",
  "DerivedVendorReportedEchoSpacing": 0.000460005,
  "DeviceSerialNumber": "35193",
  "DwellTime": 3.1e-06,
  "EchoTime": 0.03,
  "EffectiveEchoSpacing": 0.000460005,
  "FlipAngle": 90,
  "HeudiconvVersion": "1.1.6",
  "ImageOrientationPatientDICOM": [1, 0, 0, 0, 1, 0],
  "ImageOrientationText": "Tra",
  "ImageType": [
    "ORIGINAL",
    "PRIMARY",
    "M",
    "ND",
    "MOSAIC"
],
  "ImagingFrequency": 123.254,
  "InPlanePhaseEncodingDirectionDICOM": "COL",
  "InstitutionAddress": "Xinjiekouwai Street No 19,Beijing,Haidian District,CN,100875",
  "InstitutionName": "BNU MRI Center",
  "InstitutionalDepartmentName": "Department",
  "MRAcquisitionType": "2D",
  "MagneticFieldStrength": 3,
  "Manufacturer": "Siemens",
  "ManufacturersModelName": "TrioTim",
  "MatrixCoilMode": "SENSE",
  "Modality": "MR",
  "NonlinearGradientCorrection": false,
  "PartialFourier": 1,
  "PatientPosition": "HFS",
  "PercentPhaseFOV": 100,
  "PercentSampling": 100,
  "PhaseEncodingDirection": "j-",
  "PhaseEncodingSteps": 64,
  "PhaseResolution": 1,
  "PixelBandwidth": 2520,
  "ProcedureStepDescription": "BNU_cst_2015^Guo.TaoMei",
  "ProtocolName": "ge_func_3x3x4_164",
  "PulseSequenceDetails": "%SiemensSeq%\\ep2d_bold",
  "ReceiveCoilName": "HeadMatrix",
  "ReconMatrixPE": 64,
  "RepetitionTime": 2,
  "SAR": 0.14179,
  "ScanOptions": "FS",
  "ScanningSequence": "EP",
  "SequenceName": "*epfid2d1_64",
  "SequenceVariant": "SK",
  "SeriesDescription": "ge_func_3x3x4_164",
  "SeriesNumber": 4,
  "ShimSetting": [-4498, -19440, -9853, 652, 10, -492, -102, 28],
  "SliceThickness": 4,
  "SliceTiming": [0, 1.035, 0.0625, 1.095, 0.1225, 1.1575, 0.1825, 1.2175, 0.245, 1.2775, 0.305, 1.34, 0.365, 1.4, 0.4275, 1.46, 0.4875, 1.5225, 0.5475, 1.5825, 0.61, 1.6425, 0.67, 1.705, 0.73, 1.765, 0.7925, 1.825, 0.8525, 1.8875, 0.9125, 1.9475, 0.975],
  "SoftwareVersions": "syngo MR B17",
  "SpacingBetweenSlices": 4.6,
  "StationName": "MRC35193",
  "TaskName": "LanguageControl",
  "TotalReadoutTime": 0.0289803,
  "TxRefAmp": 338.266,
  "dcmmeta_affine": [
    [-3.125, 0.0, 0.0, 107.42168426513672],
    [0.0, 3.125, 0.0, -93.50150299072266],
    [0.0, 0.0, 4.599999904632568, -58.08192825317383],
    [0.0, 0.0, 0.0, 1.0]
],
  "dcmmeta_reorient_transform": [
    [0.0, -1.0, 0.0, 63.0],
    [1.0, 0.0, 0.0, 0.0],
    [0.0, 0.0, 1.0, 0.0],
    [0.0, 0.0, 0.0, 1.0]
],
  "dcmmeta_shape": [64, 64, 33, 164],
  "dcmmeta_slice_dim": 2,
  "dcmmeta_version": 0.6,
  "global": {
    "const": {
      "AcquisitionMatrix": [64, 0, 0, 64],
      "AngioFlag": "N",
      "BitsAllocated": 16,
      "BitsStored": 12,
      "Columns": 384,
      "EchoNumbers": 1,
      "EchoTime": 30.0,
      "EchoTrainLength": 1,
      "FlipAngle": 90.0,
      "HighBit": 11,
      "ImageOrientationPatient": [1.0, 0.0, 0.0, 0.0, 1.0, 0.0],
      "ImagePositionPatient": [-607.42168664932, -603.37349390984, -58.081928253174],
      "ImageType": [
        "ORIGINAL",
        "PRIMARY",
        "M",
        "ND",
        "MOSAIC"
],
      "ImagedNucleus": "1H",
      "ImagingFrequency": 123.253961,
      "InPlanePhaseEncodingDirection": "COL",
      "MRAcquisitionType": "2D",
      "MagneticFieldStrength": 3.0,
      "Manufacturer": "SIEMENS",
      "ManufacturerModelName": "TrioTim",
      "Modality": "MR",
      "NumberOfAverages": 1.0,
      "NumberOfPhaseEncodingSteps": 64,
      "PercentPhaseFieldOfView": 100.0,
      "PercentSampling": 100.0,
      "PerformedProcedureStepStartTime": "155333.390000",
      "PhotometricInterpretation": "MONOCHROME2",
      "PixelBandwidth": 2520.0,
      "PixelRepresentation": 0,
      "PixelSpacing": [3.125, 3.125],
      "ProtocolName": "ge_func_3x3x4_164",
      "RepetitionTime": 2000.0,
      "Rows": 384,
      "SAR": 0.1417901703318,
      "SamplesPerPixel": 1,
      "ScanOptions": "FS",
      "ScanningSequence": "EP",
      "SequenceName": "*epfid2d1_64",
      "SequenceVariant": "SK",
      "SeriesDescription": "ge_func_3x3x4_164",
      "SeriesNumber": 4,
      "SeriesTime": "160945.937000",
      "SliceLocation": -58.081928253174,
      "SliceThickness": 4.0,
      "SmallestImagePixelValue": 0,
      "SoftwareVersions": "syngo MR B17",
      "SpacingBetweenSlices": 4.6000000238419,
      "SpecificCharacterSet": "ISO_IR 100",
      "StudyID": "1",
      "StudyTime": "155333.312000",
      "TransmitCoilName": "Body",
      "VariableFlipAngleFlag": "N",
      "WindowCenterWidthExplanation": "Algo1",
      "dBdt": 0.0},
    "slices": {}
  },
  "time": {
    "samples": {
      "AcquisitionNumber": [1, 2, 3, 4, 5, 6, 7, 8, 9, 10, 11, 12, 13, 14, 15, 16, 17, 18, 19, 20, 21, 22, 23, 24, 25, 26, 27, 28, 29, 30, 31, 32, 33, 34, 35, 36, 37, 38, 39, 40, 41, 42, 43, 44, 45, 46, 47, 48, 49, 50, 51, 52, 53, 54, 55, 56, 57, 58, 59, 60, 61, 62, 63, 64, 65, 66, 67, 68, 69, 70, 71, 72, 73, 74, 75, 76, 77, 78, 79, 80, 81, 82, 83, 84, 85, 86, 87, 88, 89, 90, 91, 92, 93, 94, 95, 96, 97, 98, 99, 100, 101, 102, 103, 104, 105, 106, 107, 108, 109, 110, 111, 112, 113, 114, 115, 116, 117, 118, 119, 120, 121, 122, 123, 124, 125, 126, 127, 128, 129, 130, 131, 132, 133, 134, 135, 136, 137, 138, 139, 140, 141, 142, 143, 144, 145, 146, 147, 148, 149, 150, 151, 152, 153, 154, 155, 156, 157, 158, 159, 160, 161, 162, 163, 164],
      "AcquisitionTime": ["160850.817500", "160852.825000", "160854.835000", "160856.842500", "160858.850000", "160900.857500", "160902.865000", "160904.875000", "160906.882500", "160908.890000", "160910.897500", "160912.907500", "160914.915000", "160916.922500", "160918.930000", "160920.937500", "160922.947500", "160924.955000", "160926.962500", "160928.970000", "160930.977500", "160932.987500", "160934.995000", "160937.002500", "160939.010000", "160941.020000", "160943.027500", "160945.035000", "160947.042500", "160949.050000", "160951.060000", "160953.067500", "160955.075000", "160957.082500", "160959.090000", "161001.100000", "161003.107500", "161005.115000", "161007.122500", "161009.130000", "161011.140000", "161013.147500", "161015.155000", "161017.162500", "161019.172500", "161021.180000", "161023.187500", "161025.195000", "161027.202500", "161029.212500", "161031.220000", "161033.227500", "161035.235000", "161037.242500", "161039.252500", "161041.260000", "161043.267500", "161045.275000", "161047.285000", "161049.292500", "161051.300000", "161053.307500", "161055.315000", "161057.325000", "161059.332500", "161101.340000", "161103.347500", "161105.355000", "161107.365000", "161109.372500", "161111.380000", "161113.387500", "161115.397500", "161117.405000", "161119.412500", "161121.420000", "161123.427500", "161125.437500", "161127.445000", "161129.452500", "161131.460000", "161133.467500", "161135.477500", "161137.485000", "161139.492500", "161141.500000", "161143.507500", "161145.517500", "161147.525000", "161149.532500", "161151.540000", "161153.550000", "161155.557500", "161157.565000", "161159.572500", "161201.580000", "161203.590000", "161205.597500", "161207.605000", "161209.612500", "161211.620000", "161213.630000", "161215.637500", "161217.645000", "161219.652500", "161221.662500", "161223.670000", "161225.677500", "161227.685000", "161229.692500", "161231.702500", "161233.710000", "161235.717500", "161237.725000", "161239.732500", "161241.742500", "161243.750000", "161245.757500", "161247.765000", "161249.775000", "161251.782500", "161253.790000", "161255.797500", "161257.805000", "161259.815000", "161301.822500", "161303.830000", "161305.837500", "161307.845000", "161309.855000", "161311.862500", "161313.870000", "161315.877500", "161317.887500", "161319.895000", "161321.902500", "161323.910000", "161325.917500", "161327.927500", "161329.935000", "161331.942500", "161333.950000", "161335.957500", "161337.967500", "161339.975000", "161341.982500", "161343.990000", "161345.997500", "161348.007500", "161350.015000", "161352.022500", "161354.030000", "161356.040000", "161358.047500", "161400.055000", "161402.062500", "161404.070000", "161406.080000", "161408.087500", "161410.095000", "161412.102500", "161414.110000", "161416.120000", "161418.127500"],
      "ContentTime": ["160945.937000", "160945.937000", "160945.937000", "160945.937000", "160945.937000", "160945.953000", "160945.953000", "160945.953000", "160945.953000", "160945.953000", "160945.953000", "160945.953000", "160945.953000", "160945.968000", "160945.968000", "160945.968000", "160945.968000", "160945.984000", "160945.984000", "160945.984000", "160945.984000", "160945.984000", "160946.000000", "160946.000000", "160946.000000", "160946.000000", "161025.921000", "161025.937000", "161025.937000", "161025.937000", "161025.937000", "161025.937000", "161025.937000", "161025.937000", "161025.953000", "161025.953000", "161025.953000", "161025.953000", "161025.953000", "161025.953000", "161025.968000", "161025.968000", "161025.968000", "161025.968000", "161025.968000", "161025.968000", "161105.921000", "161105.937000", "161105.937000", "161105.937000", "161105.937000", "161105.953000", "161105.953000", "161105.953000", "161105.953000", "161105.953000", "161105.953000", "161105.953000", "161105.953000", "161105.968000", "161105.968000", "161105.968000", "161105.968000", "161105.968000", "161105.968000", "161105.968000", "161145.921000", "161145.937000", "161145.937000", "161145.937000", "161145.937000", "161145.937000", "161145.953000", "161145.953000", "161145.953000", "161145.953000", "161145.953000", "161145.953000", "161145.953000", "161145.968000", "161145.968000", "161145.968000", "161145.968000", "161145.968000", "161145.968000", "161145.968000", "161225.921000", "161225.937000", "161225.937000", "161225.937000", "161225.937000", "161225.953000", "161225.953000", "161225.953000", "161225.953000", "161225.953000", "161225.953000", "161225.968000", "161225.968000", "161225.968000", "161225.968000", "161225.968000", "161225.968000", "161225.968000", "161225.968000", "161225.984000", "161305.921000", "161305.937000", "161305.937000", "161305.937000", "161305.937000", "161305.937000", "161305.937000", "161305.937000", "161305.953000", "161305.953000", "161305.953000", "161305.953000", "161305.953000", "161305.953000", "161305.953000", "161305.968000", "161305.968000", "161305.968000", "161305.968000", "161305.968000", "161345.921000", "161345.937000", "161345.937000", "161345.937000", "161345.937000", "161345.937000", "161345.937000", "161345.937000", "161345.953000", "161345.953000", "161345.953000", "161345.953000", "161345.953000", "161345.968000", "161345.968000", "161345.968000", "161345.968000", "161345.968000", "161345.968000", "161345.968000", "161420.015000", "161420.015000", "161420.015000", "161420.031000", "161420.031000", "161420.031000", "161420.031000", "161420.031000", "161420.031000", "161420.046000", "161420.046000", "161420.046000", "161420.046000", "161420.046000", "161420.046000", "161420.046000", "161420.046000", "161420.062000"],
      "InstanceCreationTime": ["160945.937000", "160945.937000", "160945.937000", "160945.937000", "160945.937000", "160945.953000", "160945.953000", "160945.953000", "160945.953000", "160945.953000", "160945.953000", "160945.953000", "160945.953000", "160945.968000", "160945.968000", "160945.968000", "160945.968000", "160945.984000", "160945.984000", "160945.984000", "160945.984000", "160945.984000", "160946.000000", "160946.000000", "160946.000000", "160946.000000", "161025.921000", "161025.937000", "161025.937000", "161025.937000", "161025.937000", "161025.937000", "161025.937000", "161025.937000", "161025.953000", "161025.953000", "161025.953000", "161025.953000", "161025.953000", "161025.953000", "161025.968000", "161025.968000", "161025.968000", "161025.968000", "161025.968000", "161025.968000", "161105.921000", "161105.937000", "161105.937000", "161105.937000", "161105.937000", "161105.953000", "161105.953000", "161105.953000", "161105.953000", "161105.953000", "161105.953000", "161105.953000", "161105.953000", "161105.968000", "161105.968000", "161105.968000", "161105.968000", "161105.968000", "161105.968000", "161105.968000", "161145.921000", "161145.937000", "161145.937000", "161145.937000", "161145.937000", "161145.937000", "161145.953000", "161145.953000", "161145.953000", "161145.953000", "161145.953000", "161145.953000", "161145.953000", "161145.968000", "161145.968000", "161145.968000", "161145.968000", "161145.968000", "161145.968000", "161145.968000", "161225.921000", "161225.937000", "161225.937000", "161225.937000", "161225.937000", "161225.953000", "161225.953000", "161225.953000", "161225.953000", "161225.953000", "161225.953000", "161225.968000", "161225.968000", "161225.968000", "161225.968000", "161225.968000", "161225.968000", "161225.968000", "161225.968000", "161225.984000", "161305.921000", "161305.937000", "161305.937000", "161305.937000", "161305.937000", "161305.937000", "161305.937000", "161305.937000", "161305.953000", "161305.953000", "161305.953000", "161305.953000", "161305.953000", "161305.953000", "161305.953000", "161305.968000", "161305.968000", "161305.968000", "161305.968000", "161305.968000", "161345.921000", "161345.937000", "161345.937000", "161345.937000", "161345.937000", "161345.937000", "161345.937000", "161345.937000", "161345.953000", "161345.953000", "161345.953000", "161345.953000", "161345.953000", "161345.968000", "161345.968000", "161345.968000", "161345.968000", "161345.968000", "161345.968000", "161345.968000", "161420.015000", "161420.015000", "161420.015000", "161420.031000", "161420.031000", "161420.031000", "161420.031000", "161420.031000", "161420.031000", "161420.046000", "161420.046000", "161420.046000", "161420.046000", "161420.046000", "161420.046000", "161420.046000", "161420.046000", "161420.062000"],
      "InstanceNumber": [1, 2, 3, 4, 5, 6, 7, 8, 9, 10, 11, 12, 13, 14, 15, 16, 17, 18, 19, 20, 21, 22, 23, 24, 25, 26, 27, 28, 29, 30, 31, 32, 33, 34, 35, 36, 37, 38, 39, 40, 41, 42, 43, 44, 45, 46, 47, 48, 49, 50, 51, 52, 53, 54, 55, 56, 57, 58, 59, 60, 61, 62, 63, 64, 65, 66, 67, 68, 69, 70, 71, 72, 73, 74, 75, 76, 77, 78, 79, 80, 81, 82, 83, 84, 85, 86, 87, 88, 89, 90, 91, 92, 93, 94, 95, 96, 97, 98, 99, 100, 101, 102, 103, 104, 105, 106, 107, 108, 109, 110, 111, 112, 113, 114, 115, 116, 117, 118, 119, 120, 121, 122, 123, 124, 125, 126, 127, 128, 129, 130, 131, 132, 133, 134, 135, 136, 137, 138, 139, 140, 141, 142, 143, 144, 145, 146, 147, 148, 149, 150, 151, 152, 153, 154, 155, 156, 157, 158, 159, 160, 161, 162, 163, 164],
      "LargestImagePixelValue": [1938, 1884, 1856, 1867, 1856, 1859, 1880, 1863, 1859, 1862, 1865, 1871, 1874, 1879, 1888, 1883, 1862, 1896, 1889, 1880, 1904, 1893, 1872, 1868, 1882, 1901, 1892, 1918, 1861, 1875, 1875, 1916, 1883, 1907, 1939, 1890, 1896, 1893, 1903, 1910, 1894, 1897, 1882, 1876, 1898, 1891, 1893, 1891, 1909, 1899, 1881, 1889, 1893, 1882, 1901, 1904, 1893, 1880, 1892, 1908, 1904, 1904, 1895, 1892, 1917, 1904, 1915, 1883, 1891, 1913, 1910, 1887, 1903, 1884, 1896, 1887, 1898, 1897, 1886, 1875, 1885, 1912, 1868, 1904, 1876, 1906, 1895, 1905, 1892, 1879, 1919, 1886, 1904, 1894, 1896, 1875, 1880, 1890, 1909, 1906, 1895, 1931, 1886, 1866, 1893, 1895, 1913, 1866, 1886, 1862, 1891, 1903, 1872, 1874, 1880, 1890, 1845, 1900, 1830, 1894, 1857, 1930, 1878, 1883, 1896, 1887, 1911, 1932, 1904, 1911, 1951, 1927, 1906, 1928, 1944, 1931, 1960, 1909, 1934, 1981, 1969, 1941, 1875, 1824, 1892, 1861, 1806, 1855, 1815, 1828, 1825, 1825, 1836, 1831, 1857, 1848, 1856, 1843, 1843, 1840, 1826, 1875, 1826, 1826],
      "WindowCenter": [741.0, 738.0, 739.0, 738.0, 738.0, 738.0, 739.0, 738.0, 738.0, 738.0, 737.0, 738.0, 737.0, 737.0, 738.0, 737.0, 737.0, 736.0, 738.0, 738.0, 737.0, 737.0, 739.0, 739.0, 738.0, 737.0, 736.0, 737.0, 737.0, 737.0, 738.0, 738.0, 738.0, 737.0, 736.0, 737.0, 738.0, 737.0, 737.0, 737.0, 737.0, 737.0, 738.0, 738.0, 738.0, 737.0, 737.0, 737.0, 736.0, 738.0, 738.0, 738.0, 737.0, 736.0, 736.0, 738.0, 738.0, 738.0, 737.0, 736.0, 736.0, 737.0, 737.0, 737.0, 737.0, 736.0, 737.0, 736.0, 737.0, 737.0, 738.0, 737.0, 736.0, 737.0, 736.0, 736.0, 737.0, 737.0, 737.0, 737.0, 737.0, 738.0, 738.0, 738.0, 738.0, 738.0, 737.0, 737.0, 737.0, 737.0, 737.0, 737.0, 737.0, 736.0, 737.0, 737.0, 738.0, 739.0, 738.0, 737.0, 737.0, 737.0, 738.0, 738.0, 737.0, 737.0, 737.0, 738.0, 738.0, 737.0, 737.0, 737.0, 737.0, 737.0, 737.0, 738.0, 738.0, 738.0, 739.0, 739.0, 738.0, 738.0, 739.0, 739.0, 738.0, 736.0, 735.0, 735.0, 736.0, 737.0, 737.0, 736.0, 734.0, 733.0, 734.0, 735.0, 735.0, 735.0, 737.0, 736.0, 736.0, 736.0, 735.0, 736.0, 738.0, 738.0, 738.0, 741.0, 742.0, 740.0, 738.0, 738.0, 738.0, 738.0, 738.0, 738.0, 739.0, 738.0, 738.0, 737.0, 738.0, 739.0, 739.0, 739.0],
      "WindowWidth": [1605.0, 1597.0, 1599.0, 1597.0, 1596.0, 1595.0, 1598.0, 1595.0, 1595.0, 1596.0, 1594.0, 1595.0, 1593.0, 1594.0, 1595.0, 1593.0, 1593.0, 1591.0, 1595.0, 1595.0, 1593.0, 1594.0, 1598.0, 1599.0, 1595.0, 1593.0, 1592.0, 1593.0, 1594.0, 1594.0, 1595.0, 1598.0, 1597.0, 1592.0, 1592.0, 1594.0, 1597.0, 1594.0, 1593.0, 1593.0, 1593.0, 1594.0, 1596.0, 1596.0, 1595.0, 1593.0, 1593.0, 1595.0, 1592.0, 1596.0, 1596.0, 1598.0, 1595.0, 1591.0, 1592.0, 1595.0, 1597.0, 1596.0, 1593.0, 1591.0, 1591.0, 1594.0, 1593.0, 1593.0, 1593.0, 1592.0, 1594.0, 1593.0, 1593.0, 1593.0, 1596.0, 1592.0, 1591.0, 1593.0, 1590.0, 1591.0, 1594.0, 1594.0, 1594.0, 1593.0, 1594.0, 1596.0, 1596.0, 1596.0, 1595.0, 1596.0, 1595.0, 1593.0, 1594.0, 1595.0, 1594.0, 1593.0, 1593.0, 1592.0, 1594.0, 1594.0, 1597.0, 1599.0, 1596.0, 1594.0, 1594.0, 1594.0, 1595.0, 1595.0, 1594.0, 1594.0, 1594.0, 1597.0, 1595.0, 1594.0, 1594.0, 1594.0, 1592.0, 1592.0, 1593.0, 1596.0, 1596.0, 1597.0, 1599.0, 1599.0, 1594.0, 1596.0, 1597.0, 1600.0, 1595.0, 1589.0, 1586.0, 1589.0, 1591.0, 1594.0, 1593.0, 1590.0, 1586.0, 1583.0, 1584.0, 1587.0, 1588.0, 1589.0, 1592.0, 1589.0, 1590.0, 1590.0, 1589.0, 1592.0, 1595.0, 1595.0, 1597.0, 1605.0, 1605.0, 1601.0, 1596.0, 1596.0, 1594.0, 1594.0, 1596.0, 1596.0, 1597.0, 1596.0, 1596.0, 1594.0, 1596.0, 1599.0, 1597.0, 1599.0]
    },
    "slices": {}
  }
}