{
  "AcquisitionMatrixPE": 64,
  "AcquisitionNumber": 1,
  "AcquisitionTime": "16:15:5.895000",
  "BandwidthPerPixelPhaseEncode": 33.967,
  "BaseResolution": 64,
  "CoilCombinationMethod": "Sum of Squares",
  "CoilString": "C:HEA;HEP",
  "ConversionSoftware": "dcm2niix",
  "ConversionSoftwareVersion": "v1.0.20220720",
  "DerivedVendorReportedEchoSpacing": 0.000460005,
  "DeviceSerialNumber": "35193",
  "DwellTime": 3.1e-06,
  "EchoTime": 0.03,
  "EffectiveEchoSpacing": 0.000460005,
  "FlipAngle": 90,
  "HeudiconvVersion": "1.1.6",
  "ImageOrientationPatientDICOM": [1, 0, 0, 0, 1, 0],
  "ImageOrientationText": "Tra",
  "ImageType": [
    "ORIGINAL",
    "PRIMARY",
    "M",
    "ND",
    "MOSAIC"
],
  "ImagingFrequency": 123.254,
  "InPlanePhaseEncodingDirectionDICOM": "COL",
  "InstitutionAddress": "Xinjiekouwai Street No 19,Beijing,Haidian District,CN,100875",
  "InstitutionName": "BNU MRI Center",
  "InstitutionalDepartmentName": "Department",
  "MRAcquisitionType": "2D",
  "MagneticFieldStrength": 3,
  "Manufacturer": "Siemens",
  "ManufacturersModelName": "TrioTim",
  "MatrixCoilMode": "SENSE",
  "Modality": "MR",
  "NonlinearGradientCorrection": false,
  "PartialFourier": 1,
  "PatientPosition": "HFS",
  "PercentPhaseFOV": 100,
  "PercentSampling": 100,
  "PhaseEncodingDirection": "j-",
  "PhaseEncodingSteps": 64,
  "PhaseResolution": 1,
  "PixelBandwidth": 2520,
  "ProcedureStepDescription": "BNU_cst_2015^Guo.TaoMei",
  "ProtocolName": "ge_func_3x3x4_164",
  "PulseSequenceDetails": "%SiemensSeq%\\ep2d_bold",
  "ReceiveCoilName": "HeadMatrix",
  "ReconMatrixPE": 64,
  "RepetitionTime": 2,
  "SAR": 0.14179,
  "ScanOptions": "FS",
  "ScanningSequence": "EP",
  "SequenceName": "*epfid2d1_64",
  "SequenceVariant": "SK",
  "SeriesDescription": "ge_func_3x3x4_164",
  "SeriesNumber": 5,
  "ShimSetting": [-4498, -19440, -9853, 652, 10, -492, -102, 28],
  "SliceThickness": 4,
  "SliceTiming": [0, 1.0325, 0.06, 1.095, 0.12, 1.155, 0.1825, 1.215, 0.2425, 1.2775, 0.3025, 1.3375, 0.365, 1.3975, 0.425, 1.46, 0.485, 1.52, 0.5475, 1.58, 0.6075, 1.6425, 0.6675, 1.7025, 0.73, 1.7625, 0.79, 1.825, 0.85, 1.885, 0.9125, 1.945, 0.9725],
  "SoftwareVersions": "syngo MR B17",
  "SpacingBetweenSlices": 4.6,
  "StationName": "MRC35193",
  "TaskName": "LanguageControl",
  "TotalReadoutTime": 0.0289803,
  "TxRefAmp": 338.266,
  "dcmmeta_affine": [
    [-3.125, 0.0, 0.0, 107.42168426513672],
    [0.0, 3.125, 0.0, -93.50150299072266],
    [0.0, 0.0, 4.599999904632568, -58.08192825317383],
    [0.0, 0.0, 0.0, 1.0]
],
  "dcmmeta_reorient_transform": [
    [0.0, -1.0, 0.0, 63.0],
    [1.0, 0.0, 0.0, 0.0],
    [0.0, 0.0, 1.0, 0.0],
    [0.0, 0.0, 0.0, 1.0]
],
  "dcmmeta_shape": [64, 64, 33, 164],
  "dcmmeta_slice_dim": 2,
  "dcmmeta_version": 0.6,
  "global": {
    "const": {
      "AcquisitionMatrix": [64, 0, 0, 64],
      "AngioFlag": "N",
      "BitsAllocated": 16,
      "BitsStored": 12,
      "Columns": 384,
      "EchoNumbers": 1,
      "EchoTime": 30.0,
      "EchoTrainLength": 1,
      "FlipAngle": 90.0,
      "HighBit": 11,
      "ImageOrientationPatient": [1.0, 0.0, 0.0, 0.0, 1.0, 0.0],
      "ImagePositionPatient": [-607.42168664932, -603.37349390984, -58.081928253174],
      "ImageType": [
        "ORIGINAL",
        "PRIMARY",
        "M",
        "ND",
        "MOSAIC"
],
      "ImagedNucleus": "1H",
      "ImagingFrequency": 123.25396,
      "InPlanePhaseEncodingDirection": "COL",
      "MRAcquisitionType": "2D",
      "MagneticFieldStrength": 3.0,
      "Manufacturer": "SIEMENS",
      "ManufacturerModelName": "TrioTim",
      "Modality": "MR",
      "NumberOfAverages": 1.0,
      "NumberOfPhaseEncodingSteps": 64,
      "PercentPhaseFieldOfView": 100.0,
      "PercentSampling": 100.0,
      "PerformedProcedureStepStartTime": "155333.390000",
      "PhotometricInterpretation": "MONOCHROME2",
      "PixelBandwidth": 2520.0,
      "PixelRepresentation": 0,
      "PixelSpacing": [3.125, 3.125],
      "ProtocolName": "ge_func_3x3x4_164",
      "RepetitionTime": 2000.0,
      "Rows": 384,
      "SAR": 0.1417901703318,
      "SamplesPerPixel": 1,
      "ScanOptions": "FS",
      "ScanningSequence": "EP",
      "SequenceName": "*epfid2d1_64",
      "SequenceVariant": "SK",
      "SeriesDescription": "ge_func_3x3x4_164",
      "SeriesNumber": 5,
      "SeriesTime": "161552.765000",
      "SliceLocation": -58.081928253174,
      "SliceThickness": 4.0,
      "SmallestImagePixelValue": 0,
      "SoftwareVersions": "syngo MR B17",
      "SpacingBetweenSlices": 4.6000000238419,
      "SpecificCharacterSet": "ISO_IR 100",
      "StudyID": "1",
      "StudyTime": "155333.312000",
      "TransmitCoilName": "Body",
      "VariableFlipAngleFlag": "N",
      "WindowCenterWidthExplanation": "Algo1",
      "dBdt": 0.0},
    "slices": {}
  },
  "time": {
    "samples": {
      "AcquisitionNumber": [1, 2, 3, 4, 5, 6, 7, 8, 9, 10, 11, 12, 13, 14, 15, 16, 17, 18, 19, 20, 21, 22, 23, 24, 25, 26, 27, 28, 29, 30, 31, 32, 33, 34, 35, 36, 37, 38, 39, 40, 41, 42, 43, 44, 45, 46, 47, 48, 49, 50, 51, 52, 53, 54, 55, 56, 57, 58, 59, 60, 61, 62, 63, 64, 65, 66, 67, 68, 69, 70, 71, 72, 73, 74, 75, 76, 77, 78, 79, 80, 81, 82, 83, 84, 85, 86, 87, 88, 89, 90, 91, 92, 93, 94, 95, 96, 97, 98, 99, 100, 101, 102, 103, 104, 105, 106, 107, 108, 109, 110, 111, 112, 113, 114, 115, 116, 117, 118, 119, 120, 121, 122, 123, 124, 125, 126, 127, 128, 129, 130, 131, 132, 133, 134, 135, 136, 137, 138, 139, 140, 141, 142, 143, 144, 145, 146, 147, 148, 149, 150, 151, 152, 153, 154, 155, 156, 157, 158, 159, 160, 161, 162, 163, 164],
      "AcquisitionTime": ["161505.895000", "161507.902500", "161509.910000", "161511.917500", "161513.925000", "161515.935000", "161517.942500", "161519.950000", "161521.957500", "161523.967500", "161525.975000", "161527.982500", "161529.990000", "161531.997500", "161534.007500", "161536.015000", "161538.022500", "161540.030000", "161542.037500", "161544.047500", "161546.055000", "161548.062500", "161550.070000", "161552.077500", "161554.087500", "161556.095000", "161558.102500", "161600.110000", "161602.120000", "161604.127500", "161606.135000", "161608.142500", "161610.150000", "161612.160000", "161614.167500", "161616.175000", "161618.182500", "161620.190000", "161622.200000", "161624.207500", "161626.215000", "161628.222500", "161630.232500", "161632.240000", "161634.247500", "161636.255000", "161638.262500", "161640.272500", "161642.280000", "161644.287500", "161646.295000", "161648.302500", "161650.312500", "161652.320000", "161654.327500", "161656.335000", "161658.345000", "161700.352500", "161702.360000", "161704.367500", "161706.375000", "161708.385000", "161710.392500", "161712.400000", "161714.407500", "161716.415000", "161718.425000", "161720.432500", "161722.440000", "161724.447500", "161726.457500", "161728.465000", "161730.472500", "161732.480000", "161734.487500", "161736.497500", "161738.505000", "161740.512500", "161742.520000", "161744.527500", "161746.537500", "161748.545000", "161750.552500", "161752.560000", "161754.567500", "161756.577500", "161758.585000", "161800.592500", "161802.600000", "161804.610000", "161806.617500", "161808.625000", "161810.632500", "161812.640000", "161814.650000", "161816.657500", "161818.665000", "161820.672500", "161822.680000", "161824.690000", "161826.697500", "161828.705000", "161830.712500", "161832.722500", "161834.730000", "161836.737500", "161838.745000", "161840.752500", "161842.762500", "161844.770000", "161846.777500", "161848.785000", "161850.792500", "161852.802500", "161854.810000", "161856.817500", "161858.825000", "161900.835000", "161902.842500", "161904.850000", "161906.857500", "161908.865000", "161910.875000", "161912.882500", "161914.890000", "161916.897500", "161918.905000", "161920.915000", "161922.922500", "161924.930000", "161926.937500", "161928.945000", "161930.955000", "161932.962500", "161934.970000", "161936.977500", "161938.987500", "161940.995000", "161943.002500", "161945.010000", "161947.017500", "161949.027500", "161951.035000", "161953.042500", "161955.050000", "161957.057500", "161959.067500", "162001.075000", "162003.082500", "162005.090000", "162007.100000", "162009.107500", "162011.115000", "162013.122500", "162015.130000", "162017.140000", "162019.147500", "162021.155000", "162023.162500", "162025.170000", "162027.180000", "162029.187500", "162031.195000", "162033.202500"],
      "ContentTime": ["161552.765000", "161552.765000", "161552.765000", "161552.765000", "161552.765000", "161552.781000", "161552.781000", "161552.781000", "161552.781000", "161552.781000", "161552.781000", "161552.781000", "161552.781000", "161552.796000", "161552.796000", "161552.796000", "161552.796000", "161552.796000", "161552.796000", "161552.796000", "161552.796000", "161552.812000", "161552.812000", "161632.750000", "161632.765000", "161632.765000", "161632.765000", "161632.765000", "161632.765000", "161632.765000", "161632.765000", "161632.781000", "161632.781000", "161632.781000", "161632.781000", "161632.781000", "161632.781000", "161632.781000", "161632.796000", "161632.796000", "161632.812000", "161632.812000", "161632.812000", "161652.750000", "161652.765000", "161652.765000", "161652.765000", "161652.765000", "161652.765000", "161652.765000", "161652.765000", "161652.765000", "161652.781000", "161732.750000", "161732.765000", "161732.765000", "161732.765000", "161732.781000", "161732.781000", "161732.781000", "161732.781000", "161732.781000", "161732.781000", "161732.781000", "161732.781000", "161732.796000", "161732.796000", "161732.796000", "161732.796000", "161732.796000", "161732.796000", "161732.796000", "161732.796000", "161812.750000", "161812.765000", "161812.765000", "161812.765000", "161812.765000", "161812.765000", "161812.765000", "161812.765000", "161812.765000", "161812.781000", "161812.781000", "161812.781000", "161812.781000", "161812.781000", "161812.796000", "161812.796000", "161812.796000", "161812.796000", "161812.796000", "161812.812000", "161852.750000", "161852.765000", "161852.765000", "161852.765000", "161852.765000", "161852.781000", "161852.781000", "161852.781000", "161852.781000", "161852.781000", "161852.781000", "161852.781000", "161852.781000", "161852.796000", "161852.796000", "161852.796000", "161852.796000", "161852.796000", "161852.796000", "161852.796000", "161932.750000", "161932.765000", "161932.765000", "161932.765000", "161932.765000", "161932.765000", "161932.765000", "161932.765000", "161932.781000", "161932.781000", "161932.781000", "161932.781000", "161932.796000", "161932.796000", "161932.796000", "161932.796000", "161932.796000", "161932.796000", "161932.796000", "161932.796000", "162012.750000", "162012.765000", "162012.765000", "162012.765000", "162012.765000", "162012.765000", "162012.765000", "162012.781000", "162012.781000", "162012.781000", "162012.796000", "162012.796000", "162012.796000", "162012.796000", "162012.796000", "162012.796000", "162012.796000", "162012.796000", "162012.812000", "162012.812000", "162034.328000", "162034.328000", "162034.343000", "162034.343000", "162034.343000", "162034.343000", "162034.343000", "162034.343000", "162034.343000", "162034.343000", "162034.359000"],
      "InstanceCreationTime": ["161552.765000", "161552.765000", "161552.765000", "161552.765000", "161552.765000", "161552.781000", "161552.781000", "161552.781000", "161552.781000", "161552.781000", "161552.781000", "161552.781000", "161552.781000", "161552.796000", "161552.796000", "161552.796000", "161552.796000", "161552.796000", "161552.796000", "161552.796000", "161552.796000", "161552.812000", "161552.812000", "161632.750000", "161632.765000", "161632.765000", "161632.765000", "161632.765000", "161632.765000", "161632.765000", "161632.765000", "161632.781000", "161632.781000", "161632.781000", "161632.781000", "161632.781000", "161632.781000", "161632.781000", "161632.796000", "161632.796000", "161632.812000", "161632.812000", "161632.812000", "161652.750000", "161652.765000", "161652.765000", "161652.765000", "161652.765000", "161652.765000", "161652.765000", "161652.765000", "161652.765000", "161652.781000", "161732.750000", "161732.765000", "161732.765000", "161732.765000", "161732.781000", "161732.781000", "161732.781000", "161732.781000", "161732.781000", "161732.781000", "161732.781000", "161732.781000", "161732.796000", "161732.796000", "161732.796000", "161732.796000", "161732.796000", "161732.796000", "161732.796000", "161732.796000", "161812.750000", "161812.765000", "161812.765000", "161812.765000", "161812.765000", "161812.765000", "161812.765000", "161812.765000", "161812.765000", "161812.781000", "161812.781000", "161812.781000", "161812.781000", "161812.781000", "161812.796000", "161812.796000", "161812.796000", "161812.796000", "161812.796000", "161812.812000", "161852.750000", "161852.765000", "161852.765000", "161852.765000", "161852.765000", "161852.781000", "161852.781000", "161852.781000", "161852.781000", "161852.781000", "161852.781000", "161852.781000", "161852.781000", "161852.796000", "161852.796000", "161852.796000", "161852.796000", "161852.796000", "161852.796000", "161852.796000", "161932.750000", "161932.765000", "161932.765000", "161932.765000", "161932.765000", "161932.765000", "161932.765000", "161932.765000", "161932.781000", "161932.781000", "161932.781000", "161932.781000", "161932.796000", "161932.796000", "161932.796000", "161932.796000", "161932.796000", "161932.796000", "161932.796000", "161932.796000", "162012.750000", "162012.765000", "162012.765000", "162012.765000", "162012.765000", "162012.765000", "162012.765000", "162012.781000", "162012.781000", "162012.781000", "162012.796000", "162012.796000", "162012.796000", "162012.796000", "162012.796000", "162012.796000", "162012.796000", "162012.796000", "162012.812000", "162012.812000", "162034.328000", "162034.328000", "162034.343000", "162034.343000", "162034.343000", "162034.343000", "162034.343000", "162034.343000", "162034.343000", "162034.343000", "162034.359000"],
      "InstanceNumber": [1, 2, 3, 4, 5, 6, 7, 8, 9, 10, 11, 12, 13, 14, 15, 16, 17, 18, 19, 20, 21, 22, 23, 24, 25, 26, 27, 28, 29, 30, 31, 32, 33, 34, 35, 36, 37, 38, 39, 40, 41, 42, 43, 44, 45, 46, 47, 48, 49, 50, 51, 52, 53, 54, 55, 56, 57, 58, 59, 60, 61, 62, 63, 64, 65, 66, 67, 68, 69, 70, 71, 72, 73, 74, 75, 76, 77, 78, 79, 80, 81, 82, 83, 84, 85, 86, 87, 88, 89, 90, 91, 92, 93, 94, 95, 96, 97, 98, 99, 100, 101, 102, 103, 104, 105, 106, 107, 108, 109, 110, 111, 112, 113, 114, 115, 116, 117, 118, 119, 120, 121, 122, 123, 124, 125, 126, 127, 128, 129, 130, 131, 132, 133, 134, 135, 136, 137, 138, 139, 140, 141, 142, 143, 144, 145, 146, 147, 148, 149, 150, 151, 152, 153, 154, 155, 156, 157, 158, 159, 160, 161, 162, 163, 164],
      "LargestImagePixelValue": [1916, 1876, 1824, 1789, 1806, 1801, 1785, 1800, 1819, 1797, 1793, 1801, 1804, 1807, 1804, 1801, 1812, 1814, 1791, 1786, 1783, 1787, 1782, 1810, 1784, 1781, 1780, 1765, 1797, 1792, 1792, 1774, 1810, 1775, 1761, 1796, 1772, 1823, 1773, 1765, 1789, 1783, 1783, 1783, 1800, 1773, 1779, 1783, 1787, 1795, 1788, 1819, 1785, 1834, 1800, 1788, 1785, 1796, 1806, 1785, 1786, 1852, 1879, 1811, 1809, 1807, 1821, 1800, 1829, 1793, 1805, 1792, 1799, 1779, 1800, 1780, 1782, 1821, 1771, 1784, 1788, 1792, 1783, 1795, 1814, 1784, 1799, 1790, 1788, 1795, 1806, 1795, 1816, 1800, 1779, 1784, 1795, 1804, 1780, 1793, 1794, 1801, 1786, 1801, 1784, 1795, 1797, 1788, 1815, 1793, 1829, 1800, 1811, 1814, 1802, 1788, 1816, 1811, 1807, 1817, 1806, 1832, 1818, 1815, 1813, 1813, 1818, 1815, 1805, 1830, 1806, 1782, 1790, 1810, 1807, 1785, 1804, 1803, 1800, 1798, 1806, 1802, 1793, 1808, 1787, 1809, 1798, 1811, 1792, 1797, 1793, 1796, 1804, 1824, 1793, 1781, 1804, 1790, 1809, 1824, 1794, 1803, 1818, 1837],
      "WindowCenter": [743.0, 740.0, 741.0, 740.0, 740.0, 739.0, 738.0, 738.0, 738.0, 739.0, 738.0, 737.0, 737.0, 738.0, 739.0, 738.0, 738.0, 738.0, 737.0, 736.0, 737.0, 739.0, 738.0, 739.0, 739.0, 739.0, 737.0, 737.0, 738.0, 739.0, 740.0, 740.0, 739.0, 738.0, 737.0, 737.0, 738.0, 738.0, 739.0, 738.0, 738.0, 737.0, 739.0, 740.0, 739.0, 738.0, 737.0, 738.0, 738.0, 738.0, 739.0, 740.0, 739.0, 738.0, 738.0, 739.0, 737.0, 737.0, 736.0, 736.0, 737.0, 738.0, 739.0, 740.0, 739.0, 738.0, 737.0, 736.0, 735.0, 736.0, 738.0, 739.0, 740.0, 738.0, 739.0, 739.0, 738.0, 739.0, 740.0, 739.0, 738.0, 738.0, 739.0, 739.0, 739.0, 738.0, 739.0, 740.0, 739.0, 738.0, 737.0, 738.0, 738.0, 737.0, 738.0, 738.0, 739.0, 740.0, 738.0, 738.0, 737.0, 738.0, 739.0, 738.0, 739.0, 741.0, 741.0, 740.0, 738.0, 738.0, 738.0, 738.0, 740.0, 740.0, 740.0, 737.0, 737.0, 737.0, 737.0, 738.0, 739.0, 739.0, 739.0, 739.0, 739.0, 739.0, 738.0, 739.0, 739.0, 739.0, 738.0, 739.0, 739.0, 740.0, 739.0, 740.0, 741.0, 740.0, 738.0, 737.0, 739.0, 741.0, 740.0, 738.0, 738.0, 739.0, 739.0, 739.0, 740.0, 741.0, 740.0, 740.0, 741.0, 740.0, 742.0, 740.0, 741.0, 740.0, 739.0, 739.0, 739.0, 740.0, 740.0, 739.0],
      "WindowWidth": [1609.0, 1602.0, 1604.0, 1602.0, 1602.0, 1599.0, 1596.0, 1596.0, 1596.0, 1597.0, 1596.0, 1593.0, 1594.0, 1595.0, 1597.0, 1597.0, 1595.0, 1595.0, 1593.0, 1591.0, 1595.0, 1597.0, 1596.0, 1600.0, 1599.0, 1597.0, 1594.0, 1594.0, 1596.0, 1599.0, 1600.0, 1600.0, 1599.0, 1596.0, 1594.0, 1594.0, 1594.0, 1597.0, 1598.0, 1595.0, 1595.0, 1594.0, 1598.0, 1601.0, 1599.0, 1596.0, 1593.0, 1596.0, 1597.0, 1595.0, 1597.0, 1602.0, 1598.0, 1597.0, 1597.0, 1599.0, 1594.0, 1592.0, 1591.0, 1590.0, 1592.0, 1596.0, 1600.0, 1601.0, 1598.0, 1595.0, 1593.0, 1589.0, 1589.0, 1590.0, 1595.0, 1599.0, 1601.0, 1597.0, 1598.0, 1597.0, 1596.0, 1600.0, 1601.0, 1597.0, 1595.0, 1597.0, 1599.0, 1599.0, 1598.0, 1596.0, 1598.0, 1602.0, 1598.0, 1595.0, 1594.0, 1596.0, 1597.0, 1594.0, 1595.0, 1595.0, 1599.0, 1601.0, 1596.0, 1595.0, 1593.0, 1597.0, 1599.0, 1597.0, 1598.0, 1602.0, 1605.0, 1600.0, 1596.0, 1595.0, 1596.0, 1595.0, 1601.0, 1601.0, 1600.0, 1594.0, 1592.0, 1592.0, 1594.0, 1596.0, 1597.0, 1598.0, 1599.0, 1598.0, 1598.0, 1597.0, 1596.0, 1598.0, 1598.0, 1596.0, 1596.0, 1598.0, 1598.0, 1600.0, 1598.0, 1600.0, 1604.0, 1599.0, 1596.0, 1593.0, 1598.0, 1603.0, 1602.0, 1596.0, 1596.0, 1599.0, 1599.0, 1600.0, 1601.0, 1602.0, 1602.0, 1602.0, 1602.0, 1602.0, 1605.0, 1602.0, 1602.0, 1600.0, 1599.0, 1599.0, 1599.0, 1602.0, 1600.0, 1597.0]
    },
    "slices": {}
  }
}