{
  "AcquisitionMatrixPE": 64,
  "AcquisitionNumber": 1,
  "AcquisitionTime": "10:26:42.190000",
  "BandwidthPerPixelPhaseEncode": 33.967,
  "BaseResolution": 64,
  "CoilCombinationMethod": "Sum of Squares",
  "CoilString": "C:HEA;HEP",
  "ConversionSoftware": "dcm2niix",
  "ConversionSoftwareVersion": "v1.0.20220720",
  "DerivedVendorReportedEchoSpacing": 0.000460005,
  "DeviceSerialNumber": "35193",
  "DwellTime": 3.1e-06,
  "EchoTime": 0.03,
  "EffectiveEchoSpacing": 0.000460005,
  "FlipAngle": 90,
  "HeudiconvVersion": "1.1.6",
  "ImageOrientationPatientDICOM": [0.999067, 0.0296663, -0.0313969, -0.0296517, 0.99956, 0.00093184],
  "ImageOrientationText": "Tra>Sag(-1.8)",
  "ImageType": [
    "ORIGINAL",
    "PRIMARY",
    "M",
    "ND",
    "MOSAIC"
],
  "ImagingFrequency": 123.254,
  "InPlanePhaseEncodingDirectionDICOM": "COL",
  "InstitutionAddress": "Xinjiekouwai Street No 19,Beijing,Haidian District,CN,100875",
  "InstitutionName": "Beijing Normal Universtiy/577BC4/",
  "InstitutionalDepartmentName": "Department",
  "MRAcquisitionType": "2D",
  "MagneticFieldStrength": 3,
  "Manufacturer": "Siemens",
  "ManufacturersModelName": "TrioTim",
  "MatrixCoilMode": "SENSE",
  "Modality": "MR",
  "NonlinearGradientCorrection": false,
  "PartialFourier": 1,
  "PatientPosition": "HFS",
  "PercentPhaseFOV": 100,
  "PercentSampling": 100,
  "PhaseEncodingDirection": "j-",
  "PhaseEncodingSteps": 64,
  "PhaseResolution": 1,
  "PixelBandwidth": 2520,
  "ProcedureStepDescription": "BNU_cst_2015^Guo.TaoMei",
  "ProtocolName": "ge_func_3x3x4_164",
  "PulseSequenceDetails": "%SiemensSeq%\\ep2d_bold",
  "ReceiveCoilName": "HeadMatrix",
  "ReconMatrixPE": 64,
  "RepetitionTime": 2,
  "SAR": 0.158506,
  "ScanOptions": "FS",
  "ScanningSequence": "EP",
  "SequenceName": "*epfid2d1_64",
  "SequenceVariant": "SK",
  "SeriesDescription": "ge_func_3x3x4_164",
  "SeriesNumber": 2,
  "ShimSetting": [-4527, -19543, -9864, 931, -169, -558, -256, 78],
  "SliceThickness": 4,
  "SliceTiming": [0, 1.0325, 0.06, 1.095, 0.12, 1.155, 0.1825, 1.215, 0.2425, 1.2775, 0.3025, 1.3375, 0.365, 1.3975, 0.425, 1.46, 0.485, 1.52, 0.5475, 1.58, 0.6075, 1.6425, 0.6675, 1.7025, 0.73, 1.7625, 0.79, 1.825, 0.85, 1.885, 0.9125, 1.945, 0.9725],
  "SoftwareVersions": "syngo MR B17",
  "SpacingBetweenSlices": 4.6,
  "StationName": "MRC35193",
  "TaskName": "CognitiveControl",
  "TotalReadoutTime": 0.0289803,
  "TxRefAmp": 341.728,
  "dcmmeta_affine": [
    [-3.1220831871032715, -0.09266143292188644, -0.14448948204517365, 101.7175064086914],
    [-0.09270717948675156, 3.123624563217163, -4.485424032196761e-09, -65.52838134765625],
    [-0.09811541438102722, -0.002911999821662903, 4.5977301597595215, -51.4421501159668],
    [0.0, 0.0, 0.0, 1.0]
],
  "dcmmeta_reorient_transform": [
    [0.0, -1.0, 0.0, 63.0],
    [1.0, 0.0, 0.0, 0.0],
    [0.0, 0.0, 1.0, 0.0],
    [0.0, 0.0, 0.0, 1.0]
],
  "dcmmeta_shape": [64, 64, 33, 164],
  "dcmmeta_slice_dim": 2,
  "dcmmeta_version": 0.6,
  "global": {
    "const": {
      "AcquisitionMatrix": [64, 0, 0, 64],
      "AngioFlag": "N",
      "BitsAllocated": 16,
      "BitsStored": 12,
      "Columns": 384,
      "EchoNumbers": 1,
      "EchoTime": 30.0,
      "EchoTrainLength": 1,
      "FlipAngle": 90.0,
      "HighBit": 11,
      "ImageOrientationPatient": [0.99906663612467, 0.02966629729478, -0.0313969327698, -0.0296516587996, 0.99955985854016, 0.00093183990846],
      "ImagePositionPatient": [-580.58732431715, -645.87304243895, -36.393059609101],
      "ImageType": [
        "ORIGINAL",
        "PRIMARY",
        "M",
        "ND",
        "MOSAIC"
],
      "ImagedNucleus": "1H",
      "ImagingFrequency": 123.253647,
      "InPlanePhaseEncodingDirection": "COL",
      "MRAcquisitionType": "2D",
      "MagneticFieldStrength": 3.0,
      "Manufacturer": "SIEMENS",
      "ManufacturerModelName": "TrioTim",
      "Modality": "MR",
      "NumberOfAverages": 1.0,
      "NumberOfPhaseEncodingSteps": 64,
      "PercentPhaseFieldOfView": 100.0,
      "PercentSampling": 100.0,
      "PerformedProcedureStepStartTime": "102410.046000",
      "PhotometricInterpretation": "MONOCHROME2",
      "PixelBandwidth": 2520.0,
      "PixelRepresentation": 0,
      "PixelSpacing": [3.125, 3.125],
      "ProtocolName": "ge_func_3x3x4_164",
      "RepetitionTime": 2000.0,
      "Rows": 384,
      "SAR": 0.15850600057805,
      "SamplesPerPixel": 1,
      "ScanOptions": "FS",
      "ScanningSequence": "EP",
      "SequenceName": "*epfid2d1_64",
      "SequenceVariant": "SK",
      "SeriesDescription": "ge_func_3x3x4_164",
      "SeriesNumber": 2,
      "SeriesTime": "102659.640000",
      "SliceLocation": -54.611790356442,
      "SliceThickness": 4.0,
      "SmallestImagePixelValue": 0,
      "SoftwareVersions": "syngo MR B17",
      "SpacingBetweenSlices": 4.5999998627474,
      "SpecificCharacterSet": "ISO_IR 100",
      "StudyID": "1",
      "StudyTime": "102409.218000",
      "TransmitCoilName": "Body",
      "VariableFlipAngleFlag": "N",
      "WindowCenterWidthExplanation": "Algo1",
      "dBdt": 0.0},
    "slices": {}
  },
  "time": {
    "samples": {
      "AcquisitionNumber": [1, 2, 3, 4, 5, 6, 7, 8, 9, 10, 11, 12, 13, 14, 15, 16, 17, 18, 19, 20, 21, 22, 23, 24, 25, 26, 27, 28, 29, 30, 31, 32, 33, 34, 35, 36, 37, 38, 39, 40, 41, 42, 43, 44, 45, 46, 47, 48, 49, 50, 51, 52, 53, 54, 55, 56, 57, 58, 59, 60, 61, 62, 63, 64, 65, 66, 67, 68, 69, 70, 71, 72, 73, 74, 75, 76, 77, 78, 79, 80, 81, 82, 83, 84, 85, 86, 87, 88, 89, 90, 91, 92, 93, 94, 95, 96, 97, 98, 99, 100, 101, 102, 103, 104, 105, 106, 107, 108, 109, 110, 111, 112, 113, 114, 115, 116, 117, 118, 119, 120, 121, 122, 123, 124, 125, 126, 127, 128, 129, 130, 131, 132, 133, 134, 135, 136, 137, 138, 139, 140, 141, 142, 143, 144, 145, 146, 147, 148, 149, 150, 151, 152, 153, 154, 155, 156, 157, 158, 159, 160, 161, 162, 163, 164],
      "AcquisitionTime": ["102642.190000", "102644.197500", "102646.205000", "102648.212500", "102650.220000", "102652.230000", "102654.237500", "102656.245000", "102658.252500", "102700.260000", "102702.270000", "102704.277500", "102706.285000", "102708.292500", "102710.302500", "102712.310000", "102714.317500", "102716.325000", "102718.332500", "102720.342500", "102722.350000", "102724.357500", "102726.365000", "102728.372500", "102730.382500", "102732.390000", "102734.397500", "102736.405000", "102738.415000", "102740.422500", "102742.430000", "102744.437500", "102746.445000", "102748.455000", "102750.462500", "102752.470000", "102754.477500", "102756.485000", "102758.495000", "102800.502500", "102802.510000", "102804.517500", "102806.527500", "102808.535000", "102810.542500", "102812.550000", "102814.557500", "102816.567500", "102818.575000", "102820.582500", "102822.590000", "102824.597500", "102826.607500", "102828.615000", "102830.622500", "102832.630000", "102834.637500", "102836.647500", "102838.655000", "102840.662500", "102842.670000", "102844.680000", "102846.687500", "102848.695000", "102850.702500", "102852.710000", "102854.720000", "102856.727500", "102858.735000", "102900.742500", "102902.750000", "102904.760000", "102906.767500", "102908.775000", "102910.782500", "102912.792500", "102914.800000", "102916.807500", "102918.815000", "102920.822500", "102922.832500", "102924.840000", "102926.847500", "102928.855000", "102930.862500", "102932.872500", "102934.880000", "102936.887500", "102938.895000", "102940.905000", "102942.912500", "102944.920000", "102946.927500", "102948.935000", "102950.945000", "102952.952500", "102954.960000", "102956.967500", "102958.975000", "103000.985000", "103002.992500", "103005.000000", "103007.007500", "103009.015000", "103011.025000", "103013.032500", "103015.040000", "103017.047500", "103019.057500", "103021.065000", "103023.072500", "103025.080000", "103027.087500", "103029.097500", "103031.105000", "103033.112500", "103035.120000", "103037.127500", "103039.137500", "103041.145000", "103043.152500", "103045.160000", "103047.170000", "103049.177500", "103051.185000", "103053.192500", "103055.200000", "103057.210000", "103059.217500", "103101.225000", "103103.232500", "103105.240000", "103107.250000", "103109.257500", "103111.265000", "103113.272500", "103115.282500", "103117.290000", "103119.297500", "103121.305000", "103123.312500", "103125.322500", "103127.330000", "103129.337500", "103131.345000", "103133.352500", "103135.362500", "103137.370000", "103139.377500", "103141.385000", "103143.392500", "103145.402500", "103147.410000", "103149.417500", "103151.425000", "103153.435000", "103155.442500", "103157.450000", "103159.457500", "103201.465000", "103203.475000", "103205.482500", "103207.490000", "103209.497500"],
      "ContentTime": ["102659.640000", "102659.640000", "102659.640000", "102659.640000", "102659.656000", "102659.656000", "102659.656000", "102659.656000", "102739.640000", "102739.640000", "102739.640000", "102739.640000", "102739.640000", "102739.640000", "102739.640000", "102739.656000", "102739.656000", "102739.656000", "102739.656000", "102739.671000", "102739.671000", "102739.671000", "102739.671000", "102739.671000", "102739.671000", "102739.671000", "102739.687000", "102739.687000", "102819.640000", "102819.640000", "102819.640000", "102819.640000", "102819.640000", "102819.640000", "102819.656000", "102819.656000", "102819.656000", "102819.656000", "102819.656000", "102819.656000", "102819.656000", "102819.656000", "102819.671000", "102819.671000", "102819.671000", "102819.671000", "102819.671000", "102819.671000", "102859.640000", "102859.640000", "102859.640000", "102859.640000", "102859.656000", "102859.656000", "102859.656000", "102859.671000", "102859.671000", "102859.671000", "102859.671000", "102859.671000", "102859.671000", "102859.671000", "102859.687000", "102859.687000", "102859.687000", "102859.687000", "102859.687000", "102859.687000", "102939.640000", "102939.640000", "102939.640000", "102939.640000", "102939.640000", "102939.640000", "102939.640000", "102939.640000", "102939.656000", "102939.656000", "102939.656000", "102939.656000", "102939.656000", "102939.656000", "102939.656000", "102939.656000", "102939.656000", "102939.671000", "102939.671000", "102939.671000", "103019.640000", "103019.640000", "103019.640000", "103019.640000", "103019.640000", "103019.656000", "103019.656000", "103019.656000", "103019.656000", "103019.671000", "103019.671000", "103019.671000", "103019.671000", "103019.671000", "103019.671000", "103019.671000", "103019.687000", "103019.687000", "103019.687000", "103019.687000", "103059.640000", "103059.640000", "103059.640000", "103059.640000", "103059.640000", "103059.656000", "103059.656000", "103059.656000", "103059.656000", "103059.656000", "103059.671000", "103059.671000", "103059.671000", "103059.671000", "103059.671000", "103059.671000", "103059.671000", "103059.687000", "103059.687000", "103059.687000", "103139.640000", "103139.640000", "103139.640000", "103139.640000", "103139.640000", "103139.640000", "103139.656000", "103139.656000", "103139.656000", "103139.656000", "103139.656000", "103139.656000", "103139.656000", "103139.656000", "103139.656000", "103139.671000", "103139.671000", "103139.671000", "103139.671000", "103139.671000", "103210.734000", "103210.734000", "103210.750000", "103210.750000", "103210.750000", "103210.750000", "103210.750000", "103210.750000", "103210.765000", "103210.765000", "103210.765000", "103210.765000", "103210.765000", "103210.765000", "103210.765000", "103210.765000"],
      "InstanceCreationTime": ["102659.640000", "102659.640000", "102659.640000", "102659.640000", "102659.656000", "102659.656000", "102659.656000", "102659.656000", "102739.640000", "102739.640000", "102739.640000", "102739.640000", "102739.640000", "102739.640000", "102739.640000", "102739.656000", "102739.656000", "102739.656000", "102739.656000", "102739.671000", "102739.671000", "102739.671000", "102739.671000", "102739.671000", "102739.671000", "102739.671000", "102739.687000", "102739.687000", "102819.640000", "102819.640000", "102819.640000", "102819.640000", "102819.640000", "102819.640000", "102819.656000", "102819.656000", "102819.656000", "102819.656000", "102819.656000", "102819.656000", "102819.656000", "102819.656000", "102819.671000", "102819.671000", "102819.671000", "102819.671000", "102819.671000", "102819.671000", "102859.640000", "102859.640000", "102859.640000", "102859.640000", "102859.656000", "102859.656000", "102859.656000", "102859.671000", "102859.671000", "102859.671000", "102859.671000", "102859.671000", "102859.671000", "102859.671000", "102859.687000", "102859.687000", "102859.687000", "102859.687000", "102859.687000", "102859.687000", "102939.640000", "102939.640000", "102939.640000", "102939.640000", "102939.640000", "102939.640000", "102939.640000", "102939.640000", "102939.656000", "102939.656000", "102939.656000", "102939.656000", "102939.656000", "102939.656000", "102939.656000", "102939.656000", "102939.656000", "102939.671000", "102939.671000", "102939.671000", "103019.640000", "103019.640000", "103019.640000", "103019.640000", "103019.640000", "103019.656000", "103019.656000", "103019.656000", "103019.656000", "103019.671000", "103019.671000", "103019.671000", "103019.671000", "103019.671000", "103019.671000", "103019.671000", "103019.687000", "103019.687000", "103019.687000", "103019.687000", "103059.640000", "103059.640000", "103059.640000", "103059.640000", "103059.640000", "103059.656000", "103059.656000", "103059.656000", "103059.656000", "103059.656000", "103059.671000", "103059.671000", "103059.671000", "103059.671000", "103059.671000", "103059.671000", "103059.671000", "103059.687000", "103059.687000", "103059.687000", "103139.640000", "103139.640000", "103139.640000", "103139.640000", "103139.640000", "103139.640000", "103139.656000", "103139.656000", "103139.656000", "103139.656000", "103139.656000", "103139.656000", "103139.656000", "103139.656000", "103139.656000", "103139.671000", "103139.671000", "103139.671000", "103139.671000", "103139.671000", "103210.734000", "103210.734000", "103210.750000", "103210.750000", "103210.750000", "103210.750000", "103210.750000", "103210.750000", "103210.765000", "103210.765000", "103210.765000", "103210.765000", "103210.765000", "103210.765000", "103210.765000", "103210.765000"],
      "InstanceNumber": [1, 2, 3, 4, 5, 6, 7, 8, 9, 10, 11, 12, 13, 14, 15, 16, 17, 18, 19, 20, 21, 22, 23, 24, 25, 26, 27, 28, 29, 30, 31, 32, 33, 34, 35, 36, 37, 38, 39, 40, 41, 42, 43, 44, 45, 46, 47, 48, 49, 50, 51, 52, 53, 54, 55, 56, 57, 58, 59, 60, 61, 62, 63, 64, 65, 66, 67, 68, 69, 70, 71, 72, 73, 74, 75, 76, 77, 78, 79, 80, 81, 82, 83, 84, 85, 86, 87, 88, 89, 90, 91, 92, 93, 94, 95, 96, 97, 98, 99, 100, 101, 102, 103, 104, 105, 106, 107, 108, 109, 110, 111, 112, 113, 114, 115, 116, 117, 118, 119, 120, 121, 122, 123, 124, 125, 126, 127, 128, 129, 130, 131, 132, 133, 134, 135, 136, 137, 138, 139, 140, 141, 142, 143, 144, 145, 146, 147, 148, 149, 150, 151, 152, 153, 154, 155, 156, 157, 158, 159, 160, 161, 162, 163, 164],
      "LargestImagePixelValue": [1612, 1551, 1526, 1525, 1545, 1542, 1553, 1527, 1537, 1547, 1545, 1526, 1533, 1544, 1542, 1546, 1551, 1526, 1535, 1547, 1525, 1534, 1538, 1564, 1524, 1547, 1552, 1549, 1542, 1549, 1566, 1570, 1537, 1534, 1536, 1559, 1524, 1540, 1527, 1539, 1569, 1530, 1547, 1556, 1544, 1549, 1545, 1539, 1560, 1539, 1540, 1560, 1531, 1538, 1557, 1551, 1538, 1545, 1546, 1565, 1529, 1534, 1548, 1567, 1534, 1542, 1550, 1566, 1530, 1547, 1556, 1552, 1554, 1556, 1535, 1537, 1546, 1543, 1534, 1538, 1552, 1534, 1536, 1553, 1565, 1540, 1540, 1559, 1534, 1537, 1652, 1583, 1519, 1522, 1537, 1903, 1542, 1552, 1561, 1546, 1573, 1536, 1545, 1544, 1549, 1549, 1552, 1572, 1532, 1535, 1551, 1541, 1553, 1571, 1538, 1538, 1560, 1557, 1530, 1550, 1555, 1560, 1586, 1539, 1545, 1528, 1558, 1563, 1539, 1545, 1554, 1570, 1538, 1552, 1543, 1576, 1537, 1564, 1566, 1529, 1556, 1562, 1527, 1541, 1565, 1557, 1550, 1558, 1560, 1544, 1537, 1558, 1570, 1535, 1531, 1553, 1560, 1540, 1544, 1537, 1558, 1560, 1520, 1541],
      "WindowCenter": [742.0, 740.0, 740.0, 740.0, 740.0, 740.0, 741.0, 740.0, 740.0, 740.0, 739.0, 739.0, 739.0, 740.0, 740.0, 739.0, 739.0, 738.0, 739.0, 739.0, 739.0, 740.0, 740.0, 740.0, 739.0, 739.0, 740.0, 740.0, 740.0, 740.0, 740.0, 740.0, 739.0, 739.0, 739.0, 739.0, 740.0, 740.0, 740.0, 739.0, 740.0, 740.0, 740.0, 740.0, 741.0, 740.0, 740.0, 741.0, 741.0, 741.0, 740.0, 740.0, 740.0, 740.0, 740.0, 741.0, 740.0, 739.0, 739.0, 739.0, 740.0, 740.0, 740.0, 740.0, 740.0, 740.0, 741.0, 741.0, 741.0, 740.0, 740.0, 741.0, 741.0, 741.0, 741.0, 741.0, 741.0, 741.0, 741.0, 741.0, 741.0, 741.0, 740.0, 740.0, 740.0, 741.0, 741.0, 741.0, 741.0, 741.0, 742.0, 742.0, 742.0, 743.0, 742.0, 740.0, 736.0, 736.0, 736.0, 737.0, 738.0, 738.0, 740.0, 740.0, 740.0, 739.0, 739.0, 740.0, 740.0, 740.0, 740.0, 740.0, 740.0, 741.0, 741.0, 742.0, 742.0, 741.0, 742.0, 742.0, 743.0, 743.0, 742.0, 741.0, 741.0, 741.0, 741.0, 741.0, 742.0, 742.0, 742.0, 742.0, 741.0, 742.0, 742.0, 742.0, 742.0, 742.0, 742.0, 741.0, 741.0, 742.0, 742.0, 742.0, 742.0, 741.0, 742.0, 742.0, 742.0, 743.0, 743.0, 743.0, 743.0, 742.0, 741.0, 741.0, 741.0, 741.0, 742.0, 741.0, 741.0, 741.0, 741.0, 742.0],
      "WindowWidth": [1611.0, 1605.0, 1608.0, 1607.0, 1606.0, 1606.0, 1608.0, 1607.0, 1606.0, 1606.0, 1605.0, 1604.0, 1605.0, 1607.0, 1605.0, 1605.0, 1605.0, 1602.0, 1603.0, 1603.0, 1604.0, 1605.0, 1606.0, 1607.0, 1605.0, 1605.0, 1606.0, 1606.0, 1607.0, 1606.0, 1607.0, 1608.0, 1605.0, 1603.0, 1603.0, 1605.0, 1606.0, 1607.0, 1606.0, 1605.0, 1606.0, 1606.0, 1607.0, 1608.0, 1609.0, 1606.0, 1607.0, 1610.0, 1609.0, 1608.0, 1607.0, 1607.0, 1606.0, 1606.0, 1607.0, 1608.0, 1607.0, 1605.0, 1604.0, 1605.0, 1607.0, 1607.0, 1605.0, 1606.0, 1606.0, 1606.0, 1609.0, 1609.0, 1608.0, 1607.0, 1608.0, 1608.0, 1610.0, 1610.0, 1609.0, 1610.0, 1610.0, 1610.0, 1609.0, 1610.0, 1610.0, 1609.0, 1607.0, 1607.0, 1607.0, 1610.0, 1610.0, 1609.0, 1611.0, 1611.0, 1614.0, 1612.0, 1613.0, 1614.0, 1611.0, 1607.0, 1596.0, 1595.0, 1596.0, 1599.0, 1602.0, 1602.0, 1607.0, 1608.0, 1606.0, 1605.0, 1604.0, 1607.0, 1607.0, 1608.0, 1608.0, 1607.0, 1606.0, 1609.0, 1610.0, 1612.0, 1612.0, 1611.0, 1611.0, 1613.0, 1614.0, 1614.0, 1614.0, 1611.0, 1610.0, 1608.0, 1609.0, 1611.0, 1612.0, 1612.0, 1612.0, 1613.0, 1611.0, 1612.0, 1611.0, 1612.0, 1611.0, 1612.0, 1612.0, 1610.0, 1610.0, 1612.0, 1613.0, 1613.0, 1614.0, 1611.0, 1612.0, 1612.0, 1613.0, 1614.0, 1614.0, 1616.0, 1616.0, 1613.0, 1611.0, 1609.0, 1609.0, 1611.0, 1611.0, 1610.0, 1610.0, 1610.0, 1610.0, 1611.0]
    },
    "slices": {}
  }
}