{
  "AcquisitionMatrixPE": 64,
  "AcquisitionNumber": 1,
  "AcquisitionTime": "15:06:21.842500",
  "BandwidthPerPixelPhaseEncode": 33.967,
  "BaseResolution": 64,
  "CoilCombinationMethod": "Sum of Squares",
  "CoilString": "C:HEA;HEP",
  "ConversionSoftware": "dcm2niix",
  "ConversionSoftwareVersion": "v1.0.20220720",
  "DerivedVendorReportedEchoSpacing": 0.000460005,
  "DeviceSerialNumber": "35193",
  "DwellTime": 3.1e-06,
  "EchoTime": 0.03,
  "EffectiveEchoSpacing": 0.000460005,
  "FlipAngle": 90,
  "HeudiconvVersion": "1.1.6",
  "ImageOrientationPatientDICOM": [1, 0, 0, 0, 1, 0],
  "ImageOrientationText": "Tra",
  "ImageType": [
    "ORIGINAL",
    "PRIMARY",
    "M",
    "ND",
    "MOSAIC"
],
  "ImagingFrequency": 123.254,
  "InPlanePhaseEncodingDirectionDICOM": "COL",
  "InstitutionAddress": "Xinjiekouwai Street No 19,Beijing,Haidian District,CN,100875",
  "InstitutionName": "Beijing Normal Universtiy/4C3F54/",
  "InstitutionalDepartmentName": "Department",
  "MRAcquisitionType": "2D",
  "MagneticFieldStrength": 3,
  "Manufacturer": "Siemens",
  "ManufacturersModelName": "TrioTim",
  "MatrixCoilMode": "SENSE",
  "Modality": "MR",
  "NonlinearGradientCorrection": false,
  "PartialFourier": 1,
  "PatientPosition": "HFS",
  "PercentPhaseFOV": 100,
  "PercentSampling": 100,
  "PhaseEncodingDirection": "j-",
  "PhaseEncodingSteps": 64,
  "PhaseResolution": 1,
  "PixelBandwidth": 2520,
  "ProcedureStepDescription": "BNU_cst_2015^Guo.TaoMei",
  "ProtocolName": "ge_func_3x3x4_164",
  "PulseSequenceDetails": "%SiemensSeq%\\ep2d_bold",
  "ReceiveCoilName": "HeadMatrix",
  "ReconMatrixPE": 64,
  "RepetitionTime": 2,
  "SAR": 0.159613,
  "ScanOptions": "FS",
  "ScanningSequence": "EP",
  "SequenceName": "*epfid2d1_64",
  "SequenceVariant": "SK",
  "SeriesDescription": "ge_func_3x3x4_164",
  "SeriesNumber": 4,
  "ShimSetting": [-4498, -19486, -9712, 1304, -105, -475, 20, 0],
  "SliceThickness": 4,
  "SliceTiming": [0, 1.035, 0.0625, 1.095, 0.1225, 1.1575, 0.1825, 1.2175, 0.245, 1.2775, 0.305, 1.34, 0.365, 1.4, 0.4275, 1.46, 0.4875, 1.5225, 0.5475, 1.5825, 0.61, 1.6425, 0.67, 1.705, 0.73, 1.765, 0.7925, 1.825, 0.8525, 1.8875, 0.9125, 1.9475, 0.975],
  "SoftwareVersions": "syngo MR B17",
  "SpacingBetweenSlices": 4.6,
  "StationName": "MRC35193",
  "TaskName": "CognitiveControl",
  "TotalReadoutTime": 0.0289803,
  "TxRefAmp": 343.166,
  "dcmmeta_affine": [
    [-3.125, 0.0, 0.0, 100.0],
    [0.0, 3.125, 0.0, -84.05572509765625],
    [0.0, 0.0, 4.599999904632568, -39.86505889892578],
    [0.0, 0.0, 0.0, 1.0]
],
  "dcmmeta_reorient_transform": [
    [0.0, -1.0, 0.0, 63.0],
    [1.0, 0.0, 0.0, 0.0],
    [0.0, 0.0, 1.0, 0.0],
    [0.0, 0.0, 0.0, 1.0]
],
  "dcmmeta_shape": [64, 64, 33, 164],
  "dcmmeta_slice_dim": 2,
  "dcmmeta_version": 0.6,
  "global": {
    "const": {
      "AcquisitionMatrix": [64, 0, 0, 64],
      "AngioFlag": "N",
      "BitsAllocated": 16,
      "BitsStored": 12,
      "Columns": 384,
      "EchoNumbers": 1,
      "EchoTime": 30.0,
      "EchoTrainLength": 1,
      "FlipAngle": 90.0,
      "HighBit": 11,
      "ImageOrientationPatient": [1.0, 0.0, 0.0, 0.0, 1.0, 0.0],
      "ImagePositionPatient": [-600.0, -612.81927680969, -39.865058898926],
      "ImageType": [
        "ORIGINAL",
        "PRIMARY",
        "M",
        "ND",
        "MOSAIC"
],
      "ImagedNucleus": "1H",
      "ImagingFrequency": 123.253662,
      "InPlanePhaseEncodingDirection": "COL",
      "MRAcquisitionType": "2D",
      "MagneticFieldStrength": 3.0,
      "Manufacturer": "SIEMENS",
      "ManufacturerModelName": "TrioTim",
      "Modality": "MR",
      "NumberOfAverages": 1.0,
      "NumberOfPhaseEncodingSteps": 64,
      "PercentPhaseFieldOfView": 100.0,
      "PercentSampling": 100.0,
      "PerformedProcedureStepStartTime": "145210.390000",
      "PhotometricInterpretation": "MONOCHROME2",
      "PixelBandwidth": 2520.0,
      "PixelRepresentation": 0,
      "PixelSpacing": [3.125, 3.125],
      "ProtocolName": "ge_func_3x3x4_164",
      "RepetitionTime": 2000.0,
      "Rows": 384,
      "SAR": 0.15961321534404,
      "SamplesPerPixel": 1,
      "ScanOptions": "FS",
      "ScanningSequence": "EP",
      "SequenceName": "*epfid2d1_64",
      "SequenceVariant": "SK",
      "SeriesDescription": "ge_func_3x3x4_164",
      "SeriesNumber": 4,
      "SeriesTime": "150707.890000",
      "SliceLocation": -39.865058898926,
      "SliceThickness": 4.0,
      "SmallestImagePixelValue": 0,
      "SoftwareVersions": "syngo MR B17",
      "SpacingBetweenSlices": 4.5999999046326,
      "SpecificCharacterSet": "ISO_IR 100",
      "StudyID": "1",
      "StudyTime": "145210.343000",
      "TransmitCoilName": "Body",
      "VariableFlipAngleFlag": "N",
      "WindowCenterWidthExplanation": "Algo1",
      "dBdt": 0.0},
    "slices": {}
  },
  "time": {
    "samples": {
      "AcquisitionNumber": [1, 2, 3, 4, 5, 6, 7, 8, 9, 10, 11, 12, 13, 14, 15, 16, 17, 18, 19, 20, 21, 22, 23, 24, 25, 26, 27, 28, 29, 30, 31, 32, 33, 34, 35, 36, 37, 38, 39, 40, 41, 42, 43, 44, 45, 46, 47, 48, 49, 50, 51, 52, 53, 54, 55, 56, 57, 58, 59, 60, 61, 62, 63, 64, 65, 66, 67, 68, 69, 70, 71, 72, 73, 74, 75, 76, 77, 78, 79, 80, 81, 82, 83, 84, 85, 86, 87, 88, 89, 90, 91, 92, 93, 94, 95, 96, 97, 98, 99, 100, 101, 102, 103, 104, 105, 106, 107, 108, 109, 110, 111, 112, 113, 114, 115, 116, 117, 118, 119, 120, 121, 122, 123, 124, 125, 126, 127, 128, 129, 130, 131, 132, 133, 134, 135, 136, 137, 138, 139, 140, 141, 142, 143, 144, 145, 146, 147, 148, 149, 150, 151, 152, 153, 154, 155, 156, 157, 158, 159, 160, 161, 162, 163, 164],
      "AcquisitionTime": ["150621.842500", "150623.852500", "150625.860000", "150627.867500", "150629.875000", "150631.882500", "150633.892500", "150635.900000", "150637.907500", "150639.915000", "150641.925000", "150643.932500", "150645.940000", "150647.947500", "150649.955000", "150651.965000", "150653.972500", "150655.980000", "150657.987500", "150659.995000", "150702.005000", "150704.012500", "150706.020000", "150708.027500", "150710.037500", "150712.045000", "150714.052500", "150716.060000", "150718.067500", "150720.077500", "150722.085000", "150724.092500", "150726.100000", "150728.107500", "150730.117500", "150732.125000", "150734.132500", "150736.140000", "150738.150000", "150740.157500", "150742.165000", "150744.172500", "150746.180000", "150748.190000", "150750.197500", "150752.205000", "150754.212500", "150756.220000", "150758.230000", "150800.237500", "150802.245000", "150804.252500", "150806.260000", "150808.270000", "150810.277500", "150812.285000", "150814.292500", "150816.302500", "150818.310000", "150820.317500", "150822.325000", "150824.332500", "150826.342500", "150828.350000", "150830.357500", "150832.365000", "150834.372500", "150836.382500", "150838.390000", "150840.397500", "150842.405000", "150844.415000", "150846.422500", "150848.430000", "150850.437500", "150852.445000", "150854.455000", "150856.462500", "150858.470000", "150900.477500", "150902.485000", "150904.495000", "150906.502500", "150908.510000", "150910.517500", "150912.527500", "150914.535000", "150916.542500", "150918.550000", "150920.557500", "150922.567500", "150924.575000", "150926.582500", "150928.590000", "150930.597500", "150932.607500", "150934.615000", "150936.622500", "150938.630000", "150940.640000", "150942.647500", "150944.655000", "150946.662500", "150948.670000", "150950.680000", "150952.687500", "150954.695000", "150956.702500", "150958.710000", "151000.720000", "151002.727500", "151004.735000", "151006.742500", "151008.750000", "151010.760000", "151012.767500", "151014.775000", "151016.782500", "151018.792500", "151020.800000", "151022.807500", "151024.815000", "151026.822500", "151028.832500", "151030.840000", "151032.847500", "151034.855000", "151036.862500", "151038.872500", "151040.880000", "151042.887500", "151044.895000", "151046.905000", "151048.912500", "151050.920000", "151052.927500", "151054.935000", "151056.945000", "151058.952500", "151100.960000", "151102.967500", "151104.975000", "151106.985000", "151108.992500", "151111.000000", "151113.007500", "151115.017500", "151117.025000", "151119.032500", "151121.040000", "151123.047500", "151125.057500", "151127.065000", "151129.072500", "151131.080000", "151133.087500", "151135.097500", "151137.105000", "151139.112500", "151141.120000", "151143.127500", "151145.137500", "151147.145000", "151149.152500"],
      "ContentTime": ["150707.906000", "150707.906000", "150707.906000", "150707.906000", "150707.906000", "150707.921000", "150707.921000", "150707.921000", "150707.921000", "150707.921000", "150707.937000", "150707.937000", "150707.937000", "150707.937000", "150707.937000", "150707.953000", "150707.953000", "150707.953000", "150707.953000", "150707.953000", "150707.953000", "150707.953000", "150747.890000", "150747.890000", "150747.890000", "150747.906000", "150747.906000", "150747.906000", "150747.906000", "150747.906000", "150747.906000", "150747.906000", "150747.906000", "150747.921000", "150747.921000", "150747.921000", "150747.921000", "150747.921000", "150747.921000", "150747.937000", "150747.937000", "150747.937000", "150827.890000", "150827.890000", "150827.890000", "150827.906000", "150827.906000", "150827.906000", "150827.906000", "150827.906000", "150827.906000", "150827.906000", "150827.906000", "150827.921000", "150827.921000", "150827.921000", "150827.921000", "150827.921000", "150827.921000", "150827.921000", "150827.921000", "150827.937000", "150907.890000", "150907.890000", "150907.890000", "150907.906000", "150907.906000", "150907.906000", "150907.921000", "150907.921000", "150907.921000", "150907.921000", "150907.921000", "150907.921000", "150907.921000", "150907.937000", "150907.953000", "150907.953000", "150907.968000", "150907.968000", "150907.968000", "150907.968000", "150947.890000", "150947.890000", "150947.890000", "150947.906000", "150947.906000", "150947.906000", "150947.921000", "150947.921000", "150947.921000", "150947.921000", "150947.921000", "150947.921000", "150947.921000", "150947.937000", "150947.937000", "150947.937000", "150947.937000", "150947.937000", "150947.937000", "150947.937000", "151027.890000", "151027.890000", "151027.890000", "151027.906000", "151027.906000", "151027.906000", "151027.906000", "151027.906000", "151027.906000", "151027.906000", "151027.906000", "151027.921000", "151027.921000", "151027.921000", "151027.921000", "151027.921000", "151027.921000", "151027.921000", "151027.921000", "151027.937000", "151107.890000", "151107.890000", "151107.890000", "151107.906000", "151107.906000", "151107.906000", "151107.906000", "151107.906000", "151107.906000", "151107.921000", "151107.921000", "151107.921000", "151107.921000", "151107.921000", "151107.921000", "151107.921000", "151107.937000", "151107.937000", "151107.937000", "151107.937000", "151147.890000", "151147.890000", "151147.890000", "151147.906000", "151147.906000", "151147.906000", "151147.906000", "151147.906000", "151147.906000", "151147.906000", "151147.906000", "151147.921000", "151147.921000", "151147.921000", "151147.921000", "151147.921000", "151147.937000", "151147.937000", "151147.937000", "151147.937000", "151150.671000", "151150.671000"],
      "InstanceCreationTime": ["150707.906000", "150707.906000", "150707.906000", "150707.906000", "150707.906000", "150707.921000", "150707.921000", "150707.921000", "150707.921000", "150707.921000", "150707.937000", "150707.937000", "150707.937000", "150707.937000", "150707.937000", "150707.953000", "150707.953000", "150707.953000", "150707.953000", "150707.953000", "150707.953000", "150707.953000", "150747.890000", "150747.890000", "150747.890000", "150747.906000", "150747.906000", "150747.906000", "150747.906000", "150747.906000", "150747.906000", "150747.906000", "150747.906000", "150747.921000", "150747.921000", "150747.921000", "150747.921000", "150747.921000", "150747.921000", "150747.937000", "150747.937000", "150747.937000", "150827.890000", "150827.890000", "150827.890000", "150827.906000", "150827.906000", "150827.906000", "150827.906000", "150827.906000", "150827.906000", "150827.906000", "150827.906000", "150827.921000", "150827.921000", "150827.921000", "150827.921000", "150827.921000", "150827.921000", "150827.921000", "150827.921000", "150827.937000", "150907.890000", "150907.890000", "150907.890000", "150907.906000", "150907.906000", "150907.906000", "150907.921000", "150907.921000", "150907.921000", "150907.921000", "150907.921000", "150907.921000", "150907.921000", "150907.937000", "150907.953000", "150907.953000", "150907.968000", "150907.968000", "150907.968000", "150907.968000", "150947.890000", "150947.890000", "150947.890000", "150947.906000", "150947.906000", "150947.906000", "150947.921000", "150947.921000", "150947.921000", "150947.921000", "150947.921000", "150947.921000", "150947.921000", "150947.937000", "150947.937000", "150947.937000", "150947.937000", "150947.937000", "150947.937000", "150947.937000", "151027.890000", "151027.890000", "151027.890000", "151027.906000", "151027.906000", "151027.906000", "151027.906000", "151027.906000", "151027.906000", "151027.906000", "151027.906000", "151027.921000", "151027.921000", "151027.921000", "151027.921000", "151027.921000", "151027.921000", "151027.921000", "151027.921000", "151027.937000", "151107.890000", "151107.890000", "151107.890000", "151107.906000", "151107.906000", "151107.906000", "151107.906000", "151107.906000", "151107.906000", "151107.921000", "151107.921000", "151107.921000", "151107.921000", "151107.921000", "151107.921000", "151107.921000", "151107.937000", "151107.937000", "151107.937000", "151107.937000", "151147.890000", "151147.890000", "151147.890000", "151147.906000", "151147.906000", "151147.906000", "151147.906000", "151147.906000", "151147.906000", "151147.906000", "151147.906000", "151147.921000", "151147.921000", "151147.921000", "151147.921000", "151147.921000", "151147.937000", "151147.937000", "151147.937000", "151147.937000", "151150.671000", "151150.671000"],
      "InstanceNumber": [1, 2, 3, 4, 5, 6, 7, 8, 9, 10, 11, 12, 13, 14, 15, 16, 17, 18, 19, 20, 21, 22, 23, 24, 25, 26, 27, 28, 29, 30, 31, 32, 33, 34, 35, 36, 37, 38, 39, 40, 41, 42, 43, 44, 45, 46, 47, 48, 49, 50, 51, 52, 53, 54, 55, 56, 57, 58, 59, 60, 61, 62, 63, 64, 65, 66, 67, 68, 69, 70, 71, 72, 73, 74, 75, 76, 77, 78, 79, 80, 81, 82, 83, 84, 85, 86, 87, 88, 89, 90, 91, 92, 93, 94, 95, 96, 97, 98, 99, 100, 101, 102, 103, 104, 105, 106, 107, 108, 109, 110, 111, 112, 113, 114, 115, 116, 117, 118, 119, 120, 121, 122, 123, 124, 125, 126, 127, 128, 129, 130, 131, 132, 133, 134, 135, 136, 137, 138, 139, 140, 141, 142, 143, 144, 145, 146, 147, 148, 149, 150, 151, 152, 153, 154, 155, 156, 157, 158, 159, 160, 161, 162, 163, 164],
      "LargestImagePixelValue": [2202, 2116, 2080, 2063, 2068, 2046, 2061, 2059, 2045, 2070, 2062, 2063, 2059, 2051, 2056, 2156, 2056, 2063, 2049, 2055, 2052, 2048, 2054, 2071, 2079, 2063, 2064, 2071, 2062, 2051, 2081, 2073, 2068, 2069, 2047, 2050, 2064, 2051, 2065, 2056, 2051, 2055, 2067, 2116, 2063, 2055, 2055, 2069, 2057, 2047, 2064, 2046, 2048, 2082, 2063, 2058, 2048, 2057, 2057, 2067, 2053, 2073, 2053, 2059, 2054, 2039, 2058, 2060, 2070, 2057, 2052, 2054, 2042, 2068, 2047, 2060, 2055, 2061, 2056, 2065, 2059, 2132, 2059, 2152, 2056, 2046, 2051, 2054, 2039, 2054, 2055, 2063, 2060, 2043, 2055, 2055, 2065, 2057, 2055, 2057, 2051, 2061, 2061, 2072, 2056, 2059, 2052, 2053, 2062, 2068, 2053, 2062, 2058, 2047, 2059, 2059, 2063, 2053, 2065, 2091, 2072, 2064, 2069, 2068, 2069, 2067, 2057, 2060, 2064, 2054, 2051, 2071, 2070, 2071, 2075, 2069, 2068, 2059, 2065, 2064, 2069, 2062, 2064, 2065, 2093, 2069, 2075, 2086, 2078, 2079, 2088, 2083, 2085, 2083, 2096, 2090, 2074, 2097, 2069, 2101, 2075, 2060, 2075, 2075],
      "WindowCenter": [794.0, 790.0, 789.0, 789.0, 789.0, 789.0, 789.0, 789.0, 789.0, 790.0, 790.0, 791.0, 791.0, 791.0, 791.0, 791.0, 791.0, 791.0, 791.0, 792.0, 791.0, 792.0, 792.0, 791.0, 791.0, 791.0, 791.0, 791.0, 790.0, 790.0, 790.0, 790.0, 791.0, 791.0, 789.0, 789.0, 789.0, 790.0, 791.0, 791.0, 791.0, 791.0, 791.0, 791.0, 790.0, 790.0, 790.0, 790.0, 791.0, 791.0, 791.0, 791.0, 791.0, 790.0, 790.0, 789.0, 789.0, 790.0, 791.0, 791.0, 790.0, 790.0, 790.0, 791.0, 791.0, 790.0, 790.0, 790.0, 790.0, 790.0, 790.0, 790.0, 790.0, 790.0, 790.0, 790.0, 790.0, 790.0, 790.0, 791.0, 791.0, 791.0, 790.0, 790.0, 790.0, 790.0, 791.0, 791.0, 791.0, 791.0, 790.0, 790.0, 790.0, 790.0, 790.0, 791.0, 790.0, 790.0, 790.0, 790.0, 791.0, 791.0, 791.0, 791.0, 791.0, 791.0, 791.0, 790.0, 790.0, 790.0, 790.0, 790.0, 790.0, 791.0, 792.0, 791.0, 790.0, 790.0, 790.0, 790.0, 790.0, 790.0, 790.0, 790.0, 790.0, 790.0, 790.0, 790.0, 790.0, 790.0, 790.0, 790.0, 791.0, 791.0, 791.0, 791.0, 790.0, 790.0, 791.0, 790.0, 791.0, 791.0, 791.0, 791.0, 792.0, 791.0, 791.0, 791.0, 792.0, 791.0, 791.0, 791.0, 791.0, 791.0, 791.0, 791.0, 790.0, 790.0, 790.0, 790.0, 790.0, 790.0, 790.0, 790.0],
      "WindowWidth": [1715.0, 1705.0, 1703.0, 1701.0, 1702.0, 1700.0, 1701.0, 1702.0, 1702.0, 1703.0, 1703.0, 1706.0, 1707.0, 1708.0, 1707.0, 1708.0, 1707.0, 1708.0, 1708.0, 1708.0, 1708.0, 1709.0, 1709.0, 1708.0, 1706.0, 1707.0, 1707.0, 1707.0, 1705.0, 1705.0, 1706.0, 1705.0, 1707.0, 1707.0, 1702.0, 1701.0, 1700.0, 1703.0, 1706.0, 1707.0, 1706.0, 1706.0, 1706.0, 1707.0, 1705.0, 1705.0, 1705.0, 1705.0, 1706.0, 1706.0, 1707.0, 1708.0, 1706.0, 1705.0, 1703.0, 1702.0, 1702.0, 1704.0, 1706.0, 1706.0, 1704.0, 1705.0, 1706.0, 1706.0, 1706.0, 1705.0, 1706.0, 1705.0, 1704.0, 1704.0, 1705.0, 1705.0, 1705.0, 1705.0, 1704.0, 1704.0, 1703.0, 1704.0, 1705.0, 1706.0, 1707.0, 1708.0, 1704.0, 1706.0, 1705.0, 1705.0, 1707.0, 1708.0, 1707.0, 1706.0, 1705.0, 1706.0, 1704.0, 1705.0, 1705.0, 1705.0, 1705.0, 1705.0, 1704.0, 1704.0, 1706.0, 1707.0, 1707.0, 1708.0, 1707.0, 1706.0, 1706.0, 1705.0, 1705.0, 1706.0, 1704.0, 1704.0, 1706.0, 1708.0, 1709.0, 1706.0, 1704.0, 1704.0, 1706.0, 1706.0, 1703.0, 1704.0, 1704.0, 1704.0, 1705.0, 1704.0, 1704.0, 1705.0, 1705.0, 1706.0, 1703.0, 1705.0, 1706.0, 1708.0, 1708.0, 1707.0, 1705.0, 1704.0, 1706.0, 1705.0, 1706.0, 1706.0, 1706.0, 1707.0, 1709.0, 1708.0, 1707.0, 1708.0, 1709.0, 1708.0, 1707.0, 1706.0, 1706.0, 1706.0, 1707.0, 1707.0, 1704.0, 1704.0, 1704.0, 1705.0, 1705.0, 1704.0, 1703.0, 1703.0]
    },
    "slices": {}
  }
}