{
  "AcquisitionMatrixPE": 64,
  "AcquisitionNumber": 1,
  "AcquisitionTime": "11:53:10.947500",
  "BandwidthPerPixelPhaseEncode": 33.967,
  "BaseResolution": 64,
  "CoilCombinationMethod": "Sum of Squares",
  "CoilString": "C:HEA;HEP",
  "ConversionSoftware": "dcm2niix",
  "ConversionSoftwareVersion": "v1.0.20220720",
  "DerivedVendorReportedEchoSpacing": 0.000460005,
  "DeviceSerialNumber": "35193",
  "DwellTime": 3.1e-06,
  "EchoTime": 0.03,
  "EffectiveEchoSpacing": 0.000460005,
  "FlipAngle": 90,
  "HeudiconvVersion": "1.1.6",
  "ImageOrientationPatientDICOM": [0.999507, 0, -0.0314108, 0, 1, 0],
  "ImageOrientationText": "Tra>Sag(-1.8)",
  "ImageType": [
    "ORIGINAL",
    "PRIMARY",
    "M",
    "ND",
    "MOSAIC"
],
  "ImagingFrequency": 123.254,
  "InPlanePhaseEncodingDirectionDICOM": "COL",
  "InstitutionAddress": "Xinjiekouwai Street No 19,Beijing,Haidian District,CN,100875",
  "InstitutionName": "Beijing Normal Universtiy/577BC4/",
  "InstitutionalDepartmentName": "Department",
  "MRAcquisitionType": "2D",
  "MagneticFieldStrength": 3,
  "Manufacturer": "Siemens",
  "ManufacturersModelName": "TrioTim",
  "MatrixCoilMode": "SENSE",
  "Modality": "MR",
  "NonlinearGradientCorrection": false,
  "PartialFourier": 1,
  "PatientPosition": "HFS",
  "PercentPhaseFOV": 100,
  "PercentSampling": 100,
  "PhaseEncodingDirection": "j-",
  "PhaseEncodingSteps": 64,
  "PhaseResolution": 1,
  "PixelBandwidth": 2520,
  "ProcedureStepDescription": "BNU_cst_2015^Guo.TaoMei",
  "ProtocolName": "ge_func_3x3x4_164",
  "PulseSequenceDetails": "%SiemensSeq%\\ep2d_bold",
  "ReceiveCoilName": "HeadMatrix",
  "ReconMatrixPE": 64,
  "RepetitionTime": 2,
  "SAR": 0.141929,
  "ScanOptions": "FS",
  "ScanningSequence": "EP",
  "SequenceName": "*epfid2d1_64",
  "SequenceVariant": "SK",
  "SeriesDescription": "ge_func_3x3x4_164",
  "SeriesNumber": 5,
  "ShimSetting": [-4533, -19308, -9843, 958, -212, -381, 162, 28],
  "SliceThickness": 4,
  "SliceTiming": [0, 1.0325, 0.06, 1.095, 0.12, 1.155, 0.1825, 1.215, 0.2425, 1.2775, 0.3025, 1.3375, 0.365, 1.3975, 0.425, 1.46, 0.485, 1.52, 0.5475, 1.58, 0.6075, 1.6425, 0.6675, 1.7025, 0.73, 1.7625, 0.79, 1.825, 0.85, 1.885, 0.9125, 1.945, 0.9725],
  "SoftwareVersions": "syngo MR B17",
  "SpacingBetweenSlices": 4.6,
  "StationName": "MRC35193",
  "TaskName": "LanguageControl",
  "TotalReadoutTime": 0.0289803,
  "TxRefAmp": 360.9,
  "dcmmeta_affine": [
    [-3.123457908630371, 0.0, -0.14448949694633484, 110.35887145996094],
    [0.0, 3.125, 0.0, -94.17620849609375],
    [-0.09815862029790878, 0.0, 4.5977301597595215, -81.89248657226562],
    [0.0, 0.0, 0.0, 1.0]
],
  "dcmmeta_reorient_transform": [
    [0.0, -1.0, 0.0, 63.0],
    [1.0, 0.0, 0.0, 0.0],
    [0.0, 0.0, 1.0, 0.0],
    [0.0, 0.0, 0.0, 1.0]
],
  "dcmmeta_shape": [64, 64, 33, 164],
  "dcmmeta_slice_dim": 2,
  "dcmmeta_version": 0.6,
  "global": {
    "const": {
      "AcquisitionMatrix": [64, 0, 0, 64],
      "AngioFlag": "N",
      "BitsAllocated": 16,
      "BitsStored": 12,
      "Columns": 384,
      "EchoNumbers": 1,
      "EchoTime": 30.0,
      "EchoTrainLength": 1,
      "FlipAngle": 90.0,
      "HighBit": 11,
      "ImageOrientationPatient": [0.99950656036366, 0.0, -0.0314107591441, 0.0, 1.0, 0.0],
      "ImagePositionPatient": [-610.11215364831, -602.69879508018, -66.187106220075],
      "ImageType": [
        "ORIGINAL",
        "PRIMARY",
        "M",
        "ND",
        "MOSAIC"
],
      "ImagedNucleus": "1H",
      "ImagingFrequency": 123.253724,
      "InPlanePhaseEncodingDirection": "COL",
      "MRAcquisitionType": "2D",
      "MagneticFieldStrength": 3.0,
      "Manufacturer": "SIEMENS",
      "ManufacturerModelName": "TrioTim",
      "Modality": "MR",
      "NumberOfAverages": 1.0,
      "NumberOfPhaseEncodingSteps": 64,
      "PercentPhaseFieldOfView": 100.0,
      "PercentSampling": 100.0,
      "PerformedProcedureStepStartTime": "113213.171000",
      "PhotometricInterpretation": "MONOCHROME2",
      "PixelBandwidth": 2520.0,
      "PixelRepresentation": 0,
      "PixelSpacing": [3.125, 3.125],
      "ProtocolName": "ge_func_3x3x4_164",
      "RepetitionTime": 2000.0,
      "Rows": 384,
      "SAR": 0.14192898596021,
      "SamplesPerPixel": 1,
      "ScanOptions": "FS",
      "ScanningSequence": "EP",
      "SequenceName": "*epfid2d1_64",
      "SequenceVariant": "SK",
      "SeriesDescription": "ge_func_3x3x4_164",
      "SeriesNumber": 5,
      "SeriesTime": "115402.156000",
      "SliceLocation": -85.318532787595,
      "SliceThickness": 4.0,
      "SmallestImagePixelValue": 0,
      "SoftwareVersions": "syngo MR B17",
      "SpacingBetweenSlices": 4.5999999822489,
      "SpecificCharacterSet": "ISO_IR 100",
      "StudyID": "1",
      "StudyTime": "113212.390000",
      "TransmitCoilName": "Body",
      "VariableFlipAngleFlag": "N",
      "WindowCenterWidthExplanation": "Algo1",
      "dBdt": 0.0},
    "slices": {}
  },
  "time": {
    "samples": {
      "AcquisitionNumber": [1, 2, 3, 4, 5, 6, 7, 8, 9, 10, 11, 12, 13, 14, 15, 16, 17, 18, 19, 20, 21, 22, 23, 24, 25, 26, 27, 28, 29, 30, 31, 32, 33, 34, 35, 36, 37, 38, 39, 40, 41, 42, 43, 44, 45, 46, 47, 48, 49, 50, 51, 52, 53, 54, 55, 56, 57, 58, 59, 60, 61, 62, 63, 64, 65, 66, 67, 68, 69, 70, 71, 72, 73, 74, 75, 76, 77, 78, 79, 80, 81, 82, 83, 84, 85, 86, 87, 88, 89, 90, 91, 92, 93, 94, 95, 96, 97, 98, 99, 100, 101, 102, 103, 104, 105, 106, 107, 108, 109, 110, 111, 112, 113, 114, 115, 116, 117, 118, 119, 120, 121, 122, 123, 124, 125, 126, 127, 128, 129, 130, 131, 132, 133, 134, 135, 136, 137, 138, 139, 140, 141, 142, 143, 144, 145, 146, 147, 148, 149, 150, 151, 152, 153, 154, 155, 156, 157, 158, 159, 160, 161, 162, 163, 164],
      "AcquisitionTime": ["115310.947500", "115312.955000", "115314.962500", "115316.970000", "115318.980000", "115320.987500", "115322.995000", "115325.002500", "115327.010000", "115329.020000", "115331.027500", "115333.035000", "115335.042500", "115337.050000", "115339.060000", "115341.067500", "115343.075000", "115345.082500", "115347.090000", "115349.100000", "115351.107500", "115353.115000", "115355.122500", "115357.132500", "115359.140000", "115401.147500", "115403.155000", "115405.162500", "115407.172500", "115409.180000", "115411.187500", "115413.195000", "115415.202500", "115417.212500", "115419.220000", "115421.227500", "115423.235000", "115425.245000", "115427.252500", "115429.260000", "115431.267500", "115433.275000", "115435.285000", "115437.292500", "115439.300000", "115441.307500", "115443.315000", "115445.325000", "115447.332500", "115449.340000", "115451.347500", "115453.357500", "115455.365000", "115457.372500", "115459.380000", "115501.387500", "115503.397500", "115505.405000", "115507.412500", "115509.420000", "115511.427500", "115513.437500", "115515.445000", "115517.452500", "115519.460000", "115521.467500", "115523.477500", "115525.485000", "115527.492500", "115529.500000", "115531.510000", "115533.517500", "115535.525000", "115537.532500", "115539.540000", "115541.550000", "115543.557500", "115545.565000", "115547.572500", "115549.580000", "115551.590000", "115553.597500", "115555.605000", "115557.612500", "115559.622500", "115601.630000", "115603.637500", "115605.645000", "115607.652500", "115609.662500", "115611.670000", "115613.677500", "115615.685000", "115617.692500", "115619.702500", "115621.710000", "115623.717500", "115625.725000", "115627.735000", "115629.742500", "115631.750000", "115633.757500", "115635.765000", "115637.775000", "115639.782500", "115641.790000", "115643.797500", "115645.805000", "115647.815000", "115649.822500", "115651.830000", "115653.837500", "115655.845000", "115657.855000", "115659.862500", "115701.870000", "115703.877500", "115705.887500", "115707.895000", "115709.902500", "115711.910000", "115713.917500", "115715.927500", "115717.935000", "115719.942500", "115721.950000", "115723.957500", "115725.967500", "115727.975000", "115729.982500", "115731.990000", "115734.000000", "115736.007500", "115738.015000", "115740.022500", "115742.030000", "115744.040000", "115746.047500", "115748.055000", "115750.062500", "115752.070000", "115754.080000", "115756.087500", "115758.095000", "115800.102500", "115802.112500", "115804.120000", "115806.127500", "115808.135000", "115810.142500", "115812.152500", "115814.160000", "115816.167500", "115818.175000", "115820.182500", "115822.192500", "115824.200000", "115826.207500", "115828.215000", "115830.222500", "115832.232500", "115834.240000", "115836.247500", "115838.255000"],
      "ContentTime": ["115402.171000", "115402.171000", "115402.171000", "115402.171000", "115402.171000", "115402.187000", "115402.187000", "115402.187000", "115402.187000", "115402.187000", "115402.187000", "115402.203000", "115402.203000", "115402.203000", "115402.203000", "115402.218000", "115402.218000", "115402.218000", "115402.218000", "115402.218000", "115402.234000", "115402.234000", "115402.234000", "115402.234000", "115402.234000", "115442.156000", "115442.156000", "115442.156000", "115442.171000", "115442.171000", "115442.171000", "115442.171000", "115442.171000", "115442.187000", "115442.187000", "115442.187000", "115442.187000", "115442.187000", "115442.187000", "115442.187000", "115442.187000", "115442.187000", "115442.203000", "115442.203000", "115442.203000", "115522.156000", "115522.156000", "115522.156000", "115522.171000", "115522.171000", "115522.171000", "115522.171000", "115522.171000", "115522.171000", "115522.171000", "115522.171000", "115522.187000", "115522.187000", "115522.187000", "115522.187000", "115522.187000", "115522.187000", "115522.187000", "115522.187000", "115522.203000", "115542.156000", "115542.156000", "115542.156000", "115542.171000", "115542.171000", "115542.171000", "115542.171000", "115542.171000", "115542.187000", "115542.187000", "115622.156000", "115622.156000", "115622.156000", "115622.171000", "115622.171000", "115622.171000", "115622.171000", "115622.171000", "115622.187000", "115622.187000", "115622.187000", "115622.187000", "115622.187000", "115622.187000", "115622.187000", "115622.187000", "115622.203000", "115622.203000", "115622.203000", "115622.203000", "115702.156000", "115702.156000", "115702.156000", "115702.171000", "115702.171000", "115702.171000", "115702.171000", "115702.171000", "115702.171000", "115702.171000", "115702.171000", "115702.187000", "115702.187000", "115702.187000", "115702.187000", "115702.187000", "115702.187000", "115702.203000", "115702.203000", "115702.203000", "115742.156000", "115742.156000", "115742.156000", "115742.171000", "115742.171000", "115742.171000", "115742.171000", "115742.171000", "115742.171000", "115742.187000", "115742.187000", "115742.187000", "115742.187000", "115742.187000", "115742.187000", "115742.187000", "115742.203000", "115742.203000", "115742.203000", "115742.203000", "115822.156000", "115822.156000", "115822.156000", "115822.171000", "115822.171000", "115822.171000", "115822.171000", "115822.171000", "115822.171000", "115822.171000", "115822.171000", "115822.187000", "115822.187000", "115822.187000", "115822.187000", "115822.187000", "115822.203000", "115822.203000", "115822.203000", "115822.203000", "115839.281000", "115839.281000", "115839.281000", "115839.296000", "115839.296000", "115839.296000", "115839.296000", "115839.296000", "115839.296000"],
      "InstanceCreationTime": ["115402.171000", "115402.171000", "115402.171000", "115402.171000", "115402.171000", "115402.187000", "115402.187000", "115402.187000", "115402.187000", "115402.187000", "115402.187000", "115402.203000", "115402.203000", "115402.203000", "115402.203000", "115402.218000", "115402.218000", "115402.218000", "115402.218000", "115402.218000", "115402.234000", "115402.234000", "115402.234000", "115402.234000", "115402.234000", "115442.156000", "115442.156000", "115442.156000", "115442.171000", "115442.171000", "115442.171000", "115442.171000", "115442.171000", "115442.187000", "115442.187000", "115442.187000", "115442.187000", "115442.187000", "115442.187000", "115442.187000", "115442.187000", "115442.187000", "115442.203000", "115442.203000", "115442.203000", "115522.156000", "115522.156000", "115522.156000", "115522.171000", "115522.171000", "115522.171000", "115522.171000", "115522.171000", "115522.171000", "115522.171000", "115522.171000", "115522.187000", "115522.187000", "115522.187000", "115522.187000", "115522.187000", "115522.187000", "115522.187000", "115522.187000", "115522.203000", "115542.156000", "115542.156000", "115542.156000", "115542.171000", "115542.171000", "115542.171000", "115542.171000", "115542.171000", "115542.187000", "115542.187000", "115622.156000", "115622.156000", "115622.156000", "115622.171000", "115622.171000", "115622.171000", "115622.171000", "115622.171000", "115622.187000", "115622.187000", "115622.187000", "115622.187000", "115622.187000", "115622.187000", "115622.187000", "115622.187000", "115622.203000", "115622.203000", "115622.203000", "115622.203000", "115702.156000", "115702.156000", "115702.156000", "115702.171000", "115702.171000", "115702.171000", "115702.171000", "115702.171000", "115702.171000", "115702.171000", "115702.171000", "115702.187000", "115702.187000", "115702.187000", "115702.187000", "115702.187000", "115702.187000", "115702.203000", "115702.203000", "115702.203000", "115742.156000", "115742.156000", "115742.156000", "115742.171000", "115742.171000", "115742.171000", "115742.171000", "115742.171000", "115742.171000", "115742.187000", "115742.187000", "115742.187000", "115742.187000", "115742.187000", "115742.187000", "115742.187000", "115742.203000", "115742.203000", "115742.203000", "115742.203000", "115822.156000", "115822.156000", "115822.156000", "115822.171000", "115822.171000", "115822.171000", "115822.171000", "115822.171000", "115822.171000", "115822.171000", "115822.171000", "115822.187000", "115822.187000", "115822.187000", "115822.187000", "115822.187000", "115822.203000", "115822.203000", "115822.203000", "115822.203000", "115839.281000", "115839.281000", "115839.281000", "115839.296000", "115839.296000", "115839.296000", "115839.296000", "115839.296000", "115839.296000"],
      "InstanceNumber": [1, 2, 3, 4, 5, 6, 7, 8, 9, 10, 11, 12, 13, 14, 15, 16, 17, 18, 19, 20, 21, 22, 23, 24, 25, 26, 27, 28, 29, 30, 31, 32, 33, 34, 35, 36, 37, 38, 39, 40, 41, 42, 43, 44, 45, 46, 47, 48, 49, 50, 51, 52, 53, 54, 55, 56, 57, 58, 59, 60, 61, 62, 63, 64, 65, 66, 67, 68, 69, 70, 71, 72, 73, 74, 75, 76, 77, 78, 79, 80, 81, 82, 83, 84, 85, 86, 87, 88, 89, 90, 91, 92, 93, 94, 95, 96, 97, 98, 99, 100, 101, 102, 103, 104, 105, 106, 107, 108, 109, 110, 111, 112, 113, 114, 115, 116, 117, 118, 119, 120, 121, 122, 123, 124, 125, 126, 127, 128, 129, 130, 131, 132, 133, 134, 135, 136, 137, 138, 139, 140, 141, 142, 143, 144, 145, 146, 147, 148, 149, 150, 151, 152, 153, 154, 155, 156, 157, 158, 159, 160, 161, 162, 163, 164],
      "LargestImagePixelValue": [1990, 1895, 1883, 1873, 1849, 1845, 1855, 1858, 1874, 1867, 1852, 1858, 1863, 1876, 1912, 1840, 1837, 1854, 1897, 1895, 1872, 1908, 1873, 1870, 1863, 1875, 1850, 1852, 1884, 1852, 1859, 1846, 1864, 1871, 1893, 1883, 1856, 1851, 1847, 1865, 1880, 1876, 1878, 1879, 1857, 1869, 1871, 1860, 1870, 1868, 1873, 1865, 1879, 1869, 1881, 1875, 1859, 1864, 1859, 1879, 1894, 1872, 1854, 1868, 1854, 1849, 1911, 1909, 1883, 1875, 1890, 1878, 1861, 1895, 1883, 1856, 1879, 1871, 1867, 1875, 1869, 1863, 1884, 1864, 1872, 1881, 1864, 1872, 1872, 1896, 1924, 1894, 1897, 1893, 1874, 1902, 1889, 1889, 1875, 1903, 1872, 1885, 1878, 1882, 1873, 1864, 1886, 1900, 1863, 1888, 1868, 1879, 1869, 1865, 1866, 1858, 1874, 1858, 1888, 1904, 1867, 1855, 1871, 1871, 1858, 1846, 1847, 1852, 1902, 1867, 1864, 1922, 1840, 1851, 1880, 1850, 1845, 1842, 1866, 1870, 1934, 1868, 1869, 1867, 1836, 1869, 1827, 1857, 1871, 1862, 1842, 1858, 1856, 1865, 1876, 1869, 1882, 1846, 1859, 1868, 1881, 1878, 1934, 1856],
      "WindowCenter": [744.0, 742.0, 741.0, 741.0, 739.0, 739.0, 740.0, 740.0, 740.0, 740.0, 739.0, 739.0, 740.0, 740.0, 740.0, 740.0, 740.0, 740.0, 741.0, 740.0, 740.0, 741.0, 740.0, 740.0, 740.0, 740.0, 741.0, 740.0, 741.0, 741.0, 741.0, 740.0, 740.0, 740.0, 741.0, 741.0, 741.0, 740.0, 740.0, 740.0, 741.0, 741.0, 741.0, 740.0, 740.0, 740.0, 741.0, 740.0, 740.0, 740.0, 741.0, 741.0, 741.0, 741.0, 741.0, 740.0, 741.0, 741.0, 741.0, 741.0, 741.0, 741.0, 741.0, 741.0, 741.0, 741.0, 740.0, 743.0, 742.0, 740.0, 741.0, 742.0, 742.0, 741.0, 742.0, 741.0, 741.0, 742.0, 741.0, 741.0, 741.0, 741.0, 741.0, 741.0, 741.0, 741.0, 741.0, 740.0, 740.0, 740.0, 741.0, 741.0, 740.0, 740.0, 740.0, 740.0, 741.0, 741.0, 741.0, 741.0, 740.0, 741.0, 741.0, 742.0, 741.0, 741.0, 742.0, 741.0, 742.0, 742.0, 741.0, 741.0, 741.0, 742.0, 742.0, 741.0, 742.0, 742.0, 742.0, 742.0, 741.0, 742.0, 743.0, 743.0, 742.0, 742.0, 741.0, 741.0, 742.0, 741.0, 741.0, 742.0, 741.0, 741.0, 741.0, 741.0, 741.0, 741.0, 741.0, 742.0, 742.0, 741.0, 740.0, 741.0, 741.0, 741.0, 740.0, 740.0, 741.0, 741.0, 740.0, 741.0, 741.0, 741.0, 742.0, 742.0, 742.0, 742.0, 742.0, 742.0, 741.0, 741.0, 742.0, 741.0],
      "WindowWidth": [1624.0, 1617.0, 1615.0, 1614.0, 1610.0, 1610.0, 1613.0, 1612.0, 1612.0, 1612.0, 1610.0, 1610.0, 1612.0, 1612.0, 1614.0, 1611.0, 1613.0, 1612.0, 1613.0, 1613.0, 1611.0, 1614.0, 1612.0, 1612.0, 1612.0, 1612.0, 1614.0, 1613.0, 1614.0, 1614.0, 1614.0, 1612.0, 1610.0, 1611.0, 1614.0, 1615.0, 1615.0, 1613.0, 1613.0, 1613.0, 1614.0, 1615.0, 1614.0, 1613.0, 1612.0, 1611.0, 1614.0, 1613.0, 1612.0, 1613.0, 1614.0, 1614.0, 1615.0, 1615.0, 1615.0, 1613.0, 1613.0, 1613.0, 1614.0, 1615.0, 1615.0, 1615.0, 1614.0, 1615.0, 1615.0, 1615.0, 1613.0, 1620.0, 1617.0, 1613.0, 1615.0, 1617.0, 1617.0, 1614.0, 1616.0, 1616.0, 1616.0, 1616.0, 1614.0, 1615.0, 1616.0, 1615.0, 1615.0, 1613.0, 1615.0, 1615.0, 1615.0, 1612.0, 1611.0, 1613.0, 1614.0, 1615.0, 1612.0, 1612.0, 1612.0, 1611.0, 1615.0, 1614.0, 1614.0, 1613.0, 1613.0, 1615.0, 1617.0, 1616.0, 1615.0, 1615.0, 1616.0, 1615.0, 1619.0, 1617.0, 1615.0, 1615.0, 1616.0, 1616.0, 1617.0, 1615.0, 1617.0, 1618.0, 1617.0, 1617.0, 1615.0, 1617.0, 1620.0, 1621.0, 1617.0, 1616.0, 1615.0, 1615.0, 1616.0, 1615.0, 1616.0, 1618.0, 1615.0, 1614.0, 1614.0, 1615.0, 1613.0, 1614.0, 1615.0, 1616.0, 1618.0, 1614.0, 1614.0, 1615.0, 1614.0, 1613.0, 1612.0, 1612.0, 1615.0, 1614.0, 1612.0, 1614.0, 1614.0, 1614.0, 1616.0, 1617.0, 1617.0, 1616.0, 1617.0, 1616.0, 1615.0, 1615.0, 1617.0, 1614.0]
    },
    "slices": {}
  }
}