{
  "AcquisitionMatrixPE": 64,
  "AcquisitionNumber": 1,
  "AcquisitionTime": "09:59:40.265000",
  "BandwidthPerPixelPhaseEncode": 33.967,
  "BaseResolution": 64,
  "CoilCombinationMethod": "Sum of Squares",
  "CoilString": "C:HEA;HEP",
  "ConversionSoftware": "dcm2niix",
  "ConversionSoftwareVersion": "v1.0.20220720",
  "DerivedVendorReportedEchoSpacing": 0.000460005,
  "DeviceSerialNumber": "35193",
  "DwellTime": 3.1e-06,
  "EchoTime": 0.03,
  "EffectiveEchoSpacing": 0.000460005,
  "FlipAngle": 90,
  "HeudiconvVersion": "1.1.6",
  "ImageOrientationPatientDICOM": [1, 0, 0, 0, 1, 0],
  "ImageOrientationText": "Tra",
  "ImageType": [
    "ORIGINAL",
    "PRIMARY",
    "M",
    "ND",
    "MOSAIC"
],
  "ImagingFrequency": 123.254,
  "InPlanePhaseEncodingDirectionDICOM": "COL",
  "InstitutionAddress": "Xinjiekouwai Street No 19,Beijing,Haidian District,CN,100875",
  "InstitutionName": "BNU MRI Center",
  "InstitutionalDepartmentName": "Department",
  "MRAcquisitionType": "2D",
  "MagneticFieldStrength": 3,
  "Manufacturer": "Siemens",
  "ManufacturersModelName": "TrioTim",
  "MatrixCoilMode": "SENSE",
  "Modality": "MR",
  "NonlinearGradientCorrection": false,
  "PartialFourier": 1,
  "PatientPosition": "HFS",
  "PercentPhaseFOV": 100,
  "PercentSampling": 100,
  "PhaseEncodingDirection": "j-",
  "PhaseEncodingSteps": 64,
  "PhaseResolution": 1,
  "PixelBandwidth": 2520,
  "ProcedureStepDescription": "BNU_cst_2015^Guo.TaoMei",
  "ProtocolName": "ge_func_3x3x4_164",
  "PulseSequenceDetails": "%SiemensSeq%\\ep2d_bold",
  "ReceiveCoilName": "HeadMatrix",
  "ReconMatrixPE": 64,
  "RepetitionTime": 2,
  "SAR": 0.172645,
  "ScanOptions": "FS",
  "ScanningSequence": "EP",
  "SequenceName": "*epfid2d1_64",
  "SequenceVariant": "SK",
  "SeriesDescription": "ge_func_3x3x4_164",
  "SeriesNumber": 3,
  "ShimSetting": [-4526, -19371, -9801, 961, -201, -351, -54, -22],
  "SliceThickness": 4,
  "SliceTiming": [0, 1.0325, 0.06, 1.095, 0.12, 1.155, 0.1825, 1.215, 0.2425, 1.2775, 0.3025, 1.3375, 0.365, 1.3975, 0.425, 1.46, 0.485, 1.52, 0.5475, 1.58, 0.6075, 1.6425, 0.6675, 1.7025, 0.73, 1.7625, 0.79, 1.825, 0.85, 1.885, 0.9125, 1.945, 0.9725],
  "SoftwareVersions": "syngo MR B17",
  "SpacingBetweenSlices": 4.6,
  "StationName": "MRC35193",
  "TaskName": "CognitiveControl",
  "TotalReadoutTime": 0.0289803,
  "TxRefAmp": 390.007,
  "dcmmeta_affine": [
    [-3.125, 0.0, 0.0, 102.02409362792969],
    [0.0, 3.125, 0.0, -85.40512084960938],
    [0.0, 0.0, 4.599999904632568, -71.5759048461914],
    [0.0, 0.0, 0.0, 1.0]
],
  "dcmmeta_reorient_transform": [
    [0.0, -1.0, 0.0, 63.0],
    [1.0, 0.0, 0.0, 0.0],
    [0.0, 0.0, 1.0, 0.0],
    [0.0, 0.0, 0.0, 1.0]
],
  "dcmmeta_shape": [64, 64, 33, 164],
  "dcmmeta_slice_dim": 2,
  "dcmmeta_version": 0.6,
  "global": {
    "const": {
      "AcquisitionMatrix": [64, 0, 0, 64],
      "AngioFlag": "N",
      "BitsAllocated": 16,
      "BitsStored": 12,
      "Columns": 384,
      "EchoNumbers": 1,
      "EchoTime": 30.0,
      "EchoTrainLength": 1,
      "FlipAngle": 90.0,
      "HighBit": 11,
      "ImageOrientationPatient": [1.0, 0.0, 0.0, 0.0, 1.0, 0.0],
      "ImagePositionPatient": [-602.02409648895, -611.46987915039, -71.575904846191],
      "ImageType": [
        "ORIGINAL",
        "PRIMARY",
        "M",
        "ND",
        "MOSAIC"
],
      "ImagedNucleus": "1H",
      "ImagingFrequency": 123.253829,
      "InPlanePhaseEncodingDirection": "COL",
      "MRAcquisitionType": "2D",
      "MagneticFieldStrength": 3.0,
      "Manufacturer": "SIEMENS",
      "ManufacturerModelName": "TrioTim",
      "Modality": "MR",
      "NumberOfAverages": 1.0,
      "NumberOfPhaseEncodingSteps": 64,
      "PercentPhaseFieldOfView": 100.0,
      "PercentSampling": 100.0,
      "PerformedProcedureStepStartTime": "095102.484000",
      "PhotometricInterpretation": "MONOCHROME2",
      "PixelBandwidth": 2520.0,
      "PixelRepresentation": 0,
      "PixelSpacing": [3.125, 3.125],
      "ProtocolName": "ge_func_3x3x4_164",
      "RepetitionTime": 2000.0,
      "Rows": 384,
      "SAR": 0.17264488114388,
      "SamplesPerPixel": 1,
      "ScanOptions": "FS",
      "ScanningSequence": "EP",
      "SequenceName": "*epfid2d1_64",
      "SequenceVariant": "SK",
      "SeriesDescription": "ge_func_3x3x4_164",
      "SeriesNumber": 3,
      "SeriesTime": "100021.453000",
      "SliceLocation": -71.575904846191,
      "SliceThickness": 4.0,
      "SmallestImagePixelValue": 0,
      "SoftwareVersions": "syngo MR B17",
      "SpacingBetweenSlices": 4.6000001430511,
      "SpecificCharacterSet": "ISO_IR 100",
      "StudyID": "1",
      "StudyTime": "095101.703000",
      "TransmitCoilName": "Body",
      "VariableFlipAngleFlag": "N",
      "WindowCenterWidthExplanation": "Algo1",
      "dBdt": 0.0},
    "slices": {}
  },
  "time": {
    "samples": {
      "AcquisitionNumber": [1, 2, 3, 4, 5, 6, 7, 8, 9, 10, 11, 12, 13, 14, 15, 16, 17, 18, 19, 20, 21, 22, 23, 24, 25, 26, 27, 28, 29, 30, 31, 32, 33, 34, 35, 36, 37, 38, 39, 40, 41, 42, 43, 44, 45, 46, 47, 48, 49, 50, 51, 52, 53, 54, 55, 56, 57, 58, 59, 60, 61, 62, 63, 64, 65, 66, 67, 68, 69, 70, 71, 72, 73, 74, 75, 76, 77, 78, 79, 80, 81, 82, 83, 84, 85, 86, 87, 88, 89, 90, 91, 92, 93, 94, 95, 96, 97, 98, 99, 100, 101, 102, 103, 104, 105, 106, 107, 108, 109, 110, 111, 112, 113, 114, 115, 116, 117, 118, 119, 120, 121, 122, 123, 124, 125, 126, 127, 128, 129, 130, 131, 132, 133, 134, 135, 136, 137, 138, 139, 140, 141, 142, 143, 144, 145, 146, 147, 148, 149, 150, 151, 152, 153, 154, 155, 156, 157, 158, 159, 160, 161, 162, 163, 164],
      "AcquisitionTime": ["095940.265000", "095942.272500", "095944.280000", "095946.287500", "095948.297500", "095950.305000", "095952.312500", "095954.320000", "095956.327500", "095958.337500", "100000.345000", "100002.352500", "100004.360000", "100006.367500", "100008.377500", "100010.385000", "100012.392500", "100014.400000", "100016.410000", "100018.417500", "100020.425000", "100022.432500", "100024.440000", "100026.450000", "100028.457500", "100030.465000", "100032.472500", "100034.480000", "100036.490000", "100038.497500", "100040.505000", "100042.512500", "100044.522500", "100046.530000", "100048.537500", "100050.545000", "100052.552500", "100054.562500", "100056.570000", "100058.577500", "100100.585000", "100102.592500", "100104.602500", "100106.610000", "100108.617500", "100110.625000", "100112.635000", "100114.642500", "100116.650000", "100118.657500", "100120.665000", "100122.675000", "100124.682500", "100126.690000", "100128.697500", "100130.705000", "100132.715000", "100134.722500", "100136.730000", "100138.737500", "100140.745000", "100142.755000", "100144.762500", "100146.770000", "100148.777500", "100150.787500", "100152.795000", "100154.802500", "100156.810000", "100158.817500", "100200.827500", "100202.835000", "100204.842500", "100206.850000", "100208.857500", "100210.867500", "100212.875000", "100214.882500", "100216.890000", "100218.900000", "100220.907500", "100222.915000", "100224.922500", "100226.930000", "100228.940000", "100230.947500", "100232.955000", "100234.962500", "100236.970000", "100238.980000", "100240.987500", "100242.995000", "100245.002500", "100247.012500", "100249.020000", "100251.027500", "100253.035000", "100255.042500", "100257.052500", "100259.060000", "100301.067500", "100303.075000", "100305.082500", "100307.092500", "100309.100000", "100311.107500", "100313.115000", "100315.122500", "100317.132500", "100319.140000", "100321.147500", "100323.155000", "100325.165000", "100327.172500", "100329.180000", "100331.187500", "100333.195000", "100335.205000", "100337.212500", "100339.220000", "100341.227500", "100343.235000", "100345.245000", "100347.252500", "100349.260000", "100351.267500", "100353.277500", "100355.285000", "100357.292500", "100359.300000", "100401.307500", "100403.317500", "100405.325000", "100407.332500", "100409.340000", "100411.347500", "100413.357500", "100415.365000", "100417.372500", "100419.380000", "100421.390000", "100423.397500", "100425.405000", "100427.412500", "100429.420000", "100431.430000", "100433.437500", "100435.445000", "100437.452500", "100439.460000", "100441.470000", "100443.477500", "100445.485000", "100447.492500", "100449.500000", "100451.510000", "100453.517500", "100455.525000", "100457.532500", "100459.542500", "100501.550000", "100503.557500", "100505.565000", "100507.572500"],
      "ContentTime": ["100021.453000", "100021.453000", "100021.468000", "100021.468000", "100021.468000", "100021.468000", "100021.468000", "100021.484000", "100021.484000", "100021.484000", "100021.484000", "100021.484000", "100021.484000", "100021.484000", "100021.484000", "100021.500000", "100021.500000", "100021.500000", "100021.500000", "100021.500000", "100101.453000", "100101.453000", "100101.453000", "100101.453000", "100101.453000", "100101.453000", "100101.453000", "100101.453000", "100101.453000", "100101.468000", "100101.468000", "100101.468000", "100101.468000", "100101.468000", "100101.468000", "100101.468000", "100101.468000", "100101.484000", "100101.484000", "100101.484000", "100141.453000", "100141.453000", "100141.453000", "100141.453000", "100141.453000", "100141.453000", "100141.453000", "100141.453000", "100141.468000", "100141.468000", "100141.468000", "100141.468000", "100141.468000", "100141.484000", "100141.484000", "100141.484000", "100141.484000", "100141.484000", "100141.484000", "100141.484000", "100221.453000", "100221.453000", "100221.453000", "100221.453000", "100221.468000", "100221.468000", "100221.468000", "100221.468000", "100221.468000", "100221.468000", "100221.468000", "100221.468000", "100221.484000", "100221.484000", "100221.484000", "100221.484000", "100221.484000", "100221.500000", "100221.500000", "100221.500000", "100301.453000", "100301.453000", "100301.453000", "100301.453000", "100301.453000", "100301.468000", "100301.468000", "100301.468000", "100301.468000", "100301.468000", "100301.468000", "100301.484000", "100301.484000", "100301.484000", "100301.484000", "100301.484000", "100301.484000", "100301.500000", "100301.500000", "100301.500000", "100341.453000", "100341.453000", "100341.453000", "100341.453000", "100341.453000", "100341.468000", "100341.468000", "100341.468000", "100341.468000", "100341.468000", "100341.468000", "100341.468000", "100341.468000", "100341.484000", "100341.484000", "100341.484000", "100341.484000", "100341.484000", "100341.484000", "100341.484000", "100421.453000", "100421.453000", "100421.453000", "100421.453000", "100421.453000", "100421.468000", "100421.468000", "100421.468000", "100421.468000", "100421.468000", "100421.468000", "100421.468000", "100421.468000", "100421.468000", "100421.484000", "100421.484000", "100421.484000", "100421.484000", "100421.484000", "100421.484000", "100501.453000", "100501.453000", "100501.453000", "100501.453000", "100501.453000", "100501.468000", "100501.468000", "100501.468000", "100501.468000", "100501.468000", "100501.468000", "100501.468000", "100501.468000", "100501.468000", "100501.484000", "100501.484000", "100501.484000", "100501.484000", "100501.484000", "100501.484000", "100508.750000", "100508.765000", "100508.765000", "100508.765000"],
      "InstanceCreationTime": ["100021.453000", "100021.453000", "100021.468000", "100021.468000", "100021.468000", "100021.468000", "100021.468000", "100021.484000", "100021.484000", "100021.484000", "100021.484000", "100021.484000", "100021.484000", "100021.484000", "100021.484000", "100021.500000", "100021.500000", "100021.500000", "100021.500000", "100021.500000", "100101.453000", "100101.453000", "100101.453000", "100101.453000", "100101.453000", "100101.453000", "100101.453000", "100101.453000", "100101.453000", "100101.468000", "100101.468000", "100101.468000", "100101.468000", "100101.468000", "100101.468000", "100101.468000", "100101.468000", "100101.484000", "100101.484000", "100101.484000", "100141.453000", "100141.453000", "100141.453000", "100141.453000", "100141.453000", "100141.453000", "100141.453000", "100141.453000", "100141.468000", "100141.468000", "100141.468000", "100141.468000", "100141.468000", "100141.484000", "100141.484000", "100141.484000", "100141.484000", "100141.484000", "100141.484000", "100141.484000", "100221.453000", "100221.453000", "100221.453000", "100221.453000", "100221.468000", "100221.468000", "100221.468000", "100221.468000", "100221.468000", "100221.468000", "100221.468000", "100221.468000", "100221.484000", "100221.484000", "100221.484000", "100221.484000", "100221.484000", "100221.500000", "100221.500000", "100221.500000", "100301.453000", "100301.453000", "100301.453000", "100301.453000", "100301.453000", "100301.468000", "100301.468000", "100301.468000", "100301.468000", "100301.468000", "100301.468000", "100301.484000", "100301.484000", "100301.484000", "100301.484000", "100301.484000", "100301.484000", "100301.500000", "100301.500000", "100301.500000", "100341.453000", "100341.453000", "100341.453000", "100341.453000", "100341.453000", "100341.468000", "100341.468000", "100341.468000", "100341.468000", "100341.468000", "100341.468000", "100341.468000", "100341.468000", "100341.484000", "100341.484000", "100341.484000", "100341.484000", "100341.484000", "100341.484000", "100341.484000", "100421.453000", "100421.453000", "100421.453000", "100421.453000", "100421.453000", "100421.468000", "100421.468000", "100421.468000", "100421.468000", "100421.468000", "100421.468000", "100421.468000", "100421.468000", "100421.468000", "100421.484000", "100421.484000", "100421.484000", "100421.484000", "100421.484000", "100421.484000", "100501.453000", "100501.453000", "100501.453000", "100501.453000", "100501.453000", "100501.468000", "100501.468000", "100501.468000", "100501.468000", "100501.468000", "100501.468000", "100501.468000", "100501.468000", "100501.468000", "100501.484000", "100501.484000", "100501.484000", "100501.484000", "100501.484000", "100501.484000", "100508.750000", "100508.765000", "100508.765000", "100508.765000"],
      "InstanceNumber": [1, 2, 3, 4, 5, 6, 7, 8, 9, 10, 11, 12, 13, 14, 15, 16, 17, 18, 19, 20, 21, 22, 23, 24, 25, 26, 27, 28, 29, 30, 31, 32, 33, 34, 35, 36, 37, 38, 39, 40, 41, 42, 43, 44, 45, 46, 47, 48, 49, 50, 51, 52, 53, 54, 55, 56, 57, 58, 59, 60, 61, 62, 63, 64, 65, 66, 67, 68, 69, 70, 71, 72, 73, 74, 75, 76, 77, 78, 79, 80, 81, 82, 83, 84, 85, 86, 87, 88, 89, 90, 91, 92, 93, 94, 95, 96, 97, 98, 99, 100, 101, 102, 103, 104, 105, 106, 107, 108, 109, 110, 111, 112, 113, 114, 115, 116, 117, 118, 119, 120, 121, 122, 123, 124, 125, 126, 127, 128, 129, 130, 131, 132, 133, 134, 135, 136, 137, 138, 139, 140, 141, 142, 143, 144, 145, 146, 147, 148, 149, 150, 151, 152, 153, 154, 155, 156, 157, 158, 159, 160, 161, 162, 163, 164],
      "LargestImagePixelValue": [2268, 2187, 2155, 2183, 2145, 2158, 2165, 2133, 2157, 2137, 2145, 2142, 2160, 2144, 2152, 2159, 2144, 2139, 2160, 2163, 2171, 2164, 2169, 2161, 2173, 2180, 2159, 2151, 2165, 2172, 2176, 2180, 2158, 2185, 2168, 2151, 2170, 2166, 2161, 2203, 2184, 2188, 2158, 2169, 2172, 2170, 2188, 2188, 2185, 2168, 2164, 2200, 2204, 2179, 2179, 2184, 2180, 2191, 2191, 2177, 2251, 2174, 2202, 2171, 2203, 2188, 2209, 2210, 2195, 2174, 2194, 2211, 2206, 2193, 2171, 2208, 2209, 2192, 2197, 2172, 2209, 2208, 2200, 2221, 2212, 2199, 2174, 2198, 2195, 2210, 2211, 2178, 2210, 2218, 2207, 2189, 2200, 2192, 2213, 2221, 2215, 2204, 2230, 2213, 2203, 2194, 2209, 2218, 2195, 2190, 2193, 2209, 2218, 2198, 2215, 2186, 2197, 2207, 2193, 2224, 2233, 2218, 2210, 2210, 2217, 2276, 2231, 2196, 2222, 2230, 2229, 2232, 2234, 2188, 2230, 2191, 2209, 2292, 2217, 2198, 2205, 2222, 2209, 2236, 2208, 2208, 2215, 2214, 2216, 2197, 2225, 2196, 2198, 2201, 2210, 2208, 2198, 2210, 2267, 2212, 2208, 2222, 2228, 2198],
      "WindowCenter": [777.0, 775.0, 775.0, 776.0, 774.0, 774.0, 773.0, 773.0, 773.0, 774.0, 775.0, 774.0, 772.0, 772.0, 772.0, 773.0, 774.0, 774.0, 774.0, 775.0, 775.0, 775.0, 775.0, 774.0, 775.0, 776.0, 775.0, 774.0, 775.0, 775.0, 775.0, 775.0, 775.0, 775.0, 775.0, 774.0, 774.0, 775.0, 775.0, 775.0, 775.0, 774.0, 774.0, 774.0, 774.0, 774.0, 776.0, 777.0, 777.0, 776.0, 776.0, 776.0, 775.0, 774.0, 774.0, 775.0, 776.0, 777.0, 777.0, 776.0, 776.0, 775.0, 775.0, 776.0, 776.0, 776.0, 776.0, 775.0, 774.0, 773.0, 775.0, 775.0, 775.0, 776.0, 776.0, 775.0, 775.0, 775.0, 774.0, 775.0, 776.0, 777.0, 776.0, 776.0, 776.0, 776.0, 776.0, 775.0, 775.0, 775.0, 775.0, 776.0, 776.0, 776.0, 777.0, 775.0, 776.0, 776.0, 777.0, 776.0, 776.0, 776.0, 776.0, 776.0, 774.0, 774.0, 775.0, 776.0, 776.0, 775.0, 775.0, 775.0, 775.0, 776.0, 777.0, 778.0, 778.0, 778.0, 777.0, 777.0, 776.0, 776.0, 777.0, 776.0, 776.0, 775.0, 774.0, 774.0, 775.0, 775.0, 775.0, 777.0, 778.0, 778.0, 777.0, 777.0, 776.0, 777.0, 776.0, 776.0, 777.0, 777.0, 776.0, 775.0, 774.0, 773.0, 773.0, 774.0, 774.0, 774.0, 776.0, 776.0, 777.0, 778.0, 778.0, 777.0, 776.0, 775.0, 775.0, 776.0, 776.0, 776.0, 776.0, 776.0],
      "WindowWidth": [1703.0, 1695.0, 1696.0, 1698.0, 1694.0, 1691.0, 1690.0, 1689.0, 1688.0, 1692.0, 1694.0, 1691.0, 1688.0, 1686.0, 1687.0, 1690.0, 1691.0, 1692.0, 1692.0, 1694.0, 1696.0, 1696.0, 1696.0, 1693.0, 1695.0, 1698.0, 1696.0, 1694.0, 1694.0, 1694.0, 1695.0, 1697.0, 1697.0, 1696.0, 1694.0, 1693.0, 1694.0, 1694.0, 1697.0, 1696.0, 1695.0, 1692.0, 1691.0, 1694.0, 1693.0, 1693.0, 1697.0, 1701.0, 1700.0, 1697.0, 1699.0, 1698.0, 1695.0, 1691.0, 1692.0, 1695.0, 1698.0, 1702.0, 1702.0, 1698.0, 1699.0, 1696.0, 1696.0, 1697.0, 1698.0, 1698.0, 1697.0, 1695.0, 1691.0, 1691.0, 1694.0, 1696.0, 1696.0, 1698.0, 1697.0, 1696.0, 1695.0, 1694.0, 1694.0, 1696.0, 1699.0, 1700.0, 1698.0, 1699.0, 1699.0, 1698.0, 1698.0, 1696.0, 1696.0, 1696.0, 1696.0, 1698.0, 1699.0, 1700.0, 1700.0, 1697.0, 1697.0, 1699.0, 1701.0, 1699.0, 1698.0, 1697.0, 1699.0, 1698.0, 1694.0, 1694.0, 1696.0, 1699.0, 1699.0, 1696.0, 1694.0, 1694.0, 1696.0, 1697.0, 1700.0, 1703.0, 1704.0, 1703.0, 1701.0, 1700.0, 1698.0, 1699.0, 1701.0, 1699.0, 1697.0, 1696.0, 1693.0, 1693.0, 1694.0, 1695.0, 1696.0, 1701.0, 1703.0, 1703.0, 1702.0, 1702.0, 1699.0, 1701.0, 1698.0, 1699.0, 1703.0, 1703.0, 1698.0, 1695.0, 1691.0, 1690.0, 1691.0, 1692.0, 1692.0, 1693.0, 1697.0, 1699.0, 1702.0, 1704.0, 1703.0, 1701.0, 1699.0, 1696.0, 1697.0, 1697.0, 1697.0, 1696.0, 1698.0, 1699.0]
    },
    "slices": {}
  }
}