{
  "AcquisitionMatrixPE": 64,
  "AcquisitionNumber": 1,
  "AcquisitionTime": "11:22:6.042500",
  "BandwidthPerPixelPhaseEncode": 33.967,
  "BaseResolution": 64,
  "CoilCombinationMethod": "Sum of Squares",
  "CoilString": "C:HEA;HEP",
  "ConversionSoftware": "dcm2niix",
  "ConversionSoftwareVersion": "v1.0.20220720",
  "DerivedVendorReportedEchoSpacing": 0.000460005,
  "DeviceSerialNumber": "35193",
  "DwellTime": 3.1e-06,
  "EchoTime": 0.03,
  "EffectiveEchoSpacing": 0.000460005,
  "FlipAngle": 90,
  "HeudiconvVersion": "1.1.6",
  "ImageOrientationPatientDICOM": [0.999871, 0.012217, 0.010471, -0.0122163, 0.999925, -0.000127934],
  "ImageOrientationText": "Tra>Sag(0.6)",
  "ImageType": [
    "ORIGINAL",
    "PRIMARY",
    "M",
    "ND",
    "MOSAIC"
],
  "ImagingFrequency": 123.254,
  "InPlanePhaseEncodingDirectionDICOM": "COL",
  "InstitutionAddress": "Xinjiekouwai Street No 19,Beijing,Haidian District,CN,100875",
  "InstitutionName": "Beijing Normal Universtiy/577BC4/",
  "InstitutionalDepartmentName": "Department",
  "MRAcquisitionType": "2D",
  "MagneticFieldStrength": 3,
  "Manufacturer": "Siemens",
  "ManufacturersModelName": "TrioTim",
  "MatrixCoilMode": "SENSE",
  "Modality": "MR",
  "NonlinearGradientCorrection": false,
  "PartialFourier": 1,
  "PatientPosition": "HFS",
  "PercentPhaseFOV": 100,
  "PercentSampling": 100,
  "PhaseEncodingDirection": "j-",
  "PhaseEncodingSteps": 64,
  "PhaseResolution": 1,
  "PixelBandwidth": 2520,
  "ProcedureStepDescription": "BNU_cst_2015^Guo.TaoMei",
  "ProtocolName": "ge_func_3x3x4_164",
  "PulseSequenceDetails": "%SiemensSeq%\\ep2d_bold",
  "ReceiveCoilName": "HeadMatrix",
  "ReconMatrixPE": 64,
  "RepetitionTime": 2,
  "SAR": 0.128457,
  "ScanOptions": "FS",
  "ScanningSequence": "EP",
  "SequenceName": "*epfid2d1_64",
  "SequenceVariant": "SK",
  "SeriesDescription": "ge_func_3x3x4_164",
  "SeriesNumber": 4,
  "ShimSetting": [-4478, -19360, -9818, 1017, -88, -768, -259, -35],
  "SliceThickness": 4,
  "SliceTiming": [0, 1.035, 0.06, 1.095, 0.1225, 1.155, 0.1825, 1.2175, 0.2425, 1.2775, 0.305, 1.3375, 0.365, 1.4, 0.425, 1.46, 0.4875, 1.52, 0.5475, 1.5825, 0.6075, 1.6425, 0.67, 1.7025, 0.73, 1.765, 0.79, 1.825, 0.8525, 1.885, 0.9125, 1.9475, 0.9725],
  "SoftwareVersions": "syngo MR B17",
  "SpacingBetweenSlices": 4.6,
  "StationName": "MRC35193",
  "TaskName": "CognitiveControl",
  "TotalReadoutTime": 0.0289803,
  "TxRefAmp": 367.219,
  "dcmmeta_affine": [
    [-3.1245954036712646, -0.03817591443657875, 0.04817020520567894, 104.4479751586914],
    [-0.038178008049726486, 3.1247668266296387, -1.2469011378968275e-09, -88.89908599853516],
    [0.03272188454866409, 0.0003997927124146372, 4.599747657775879, -86.80003356933594],
    [0.0, 0.0, 0.0, 1.0]
],
  "dcmmeta_reorient_transform": [
    [0.0, -1.0, 0.0, 63.0],
    [1.0, 0.0, 0.0, 0.0],
    [0.0, 0.0, 1.0, 0.0],
    [0.0, 0.0, 0.0, 1.0]
],
  "dcmmeta_shape": [64, 64, 33, 164],
  "dcmmeta_slice_dim": 2,
  "dcmmeta_version": 0.6,
  "global": {
    "const": {
      "AcquisitionMatrix": [64, 0, 0, 64],
      "AngioFlag": "N",
      "BitsAllocated": 16,
      "BitsStored": 12,
      "Columns": 384,
      "EchoNumbers": 1,
      "EchoTime": 30.0,
      "EchoTrainLength": 1,
      "FlipAngle": 90.0,
      "HighBit": 11,
      "ImageOrientationPatient": [0.99987054358511, 0.01221696246541, 0.01047100276669, -0.0122162925988, 0.99992537012925, -0.0001279336665],
      "ImagePositionPatient": [-595.87001998841, -614.03238737647, -91.946381010868],
      "ImageType": [
        "ORIGINAL",
        "PRIMARY",
        "M",
        "ND",
        "MOSAIC"
],
      "ImagedNucleus": "1H",
      "ImagingFrequency": 123.25389,
      "InPlanePhaseEncodingDirection": "COL",
      "MRAcquisitionType": "2D",
      "MagneticFieldStrength": 3.0,
      "Manufacturer": "SIEMENS",
      "ManufacturerModelName": "TrioTim",
      "Modality": "MR",
      "NumberOfAverages": 1.0,
      "NumberOfPhaseEncodingSteps": 64,
      "PercentPhaseFieldOfView": 100.0,
      "PercentSampling": 100.0,
      "PerformedProcedureStepStartTime": "110711.421000",
      "PhotometricInterpretation": "MONOCHROME2",
      "PixelBandwidth": 2520.0,
      "PixelRepresentation": 0,
      "PixelSpacing": [3.125, 3.125],
      "ProtocolName": "ge_func_3x3x4_164",
      "RepetitionTime": 2000.0,
      "Rows": 384,
      "SAR": 0.12845690154177,
      "SamplesPerPixel": 1,
      "ScanOptions": "FS",
      "ScanningSequence": "EP",
      "SequenceName": "*epfid2d1_64",
      "SequenceVariant": "SK",
      "SeriesDescription": "ge_func_3x3x4_164",
      "SeriesNumber": 4,
      "SeriesTime": "112301.437000",
      "SliceLocation": -85.701517391782,
      "SliceThickness": 4.0,
      "SmallestImagePixelValue": 0,
      "SoftwareVersions": "syngo MR B17",
      "SpacingBetweenSlices": 4.5999998786441,
      "SpecificCharacterSet": "ISO_IR 100",
      "StudyID": "1",
      "StudyTime": "110710.640000",
      "TransmitCoilName": "Body",
      "VariableFlipAngleFlag": "N",
      "WindowCenterWidthExplanation": "Algo1",
      "dBdt": 0.0},
    "slices": {}
  },
  "time": {
    "samples": {
      "AcquisitionNumber": [1, 2, 3, 4, 5, 6, 7, 8, 9, 10, 11, 12, 13, 14, 15, 16, 17, 18, 19, 20, 21, 22, 23, 24, 25, 26, 27, 28, 29, 30, 31, 32, 33, 34, 35, 36, 37, 38, 39, 40, 41, 42, 43, 44, 45, 46, 47, 48, 49, 50, 51, 52, 53, 54, 55, 56, 57, 58, 59, 60, 61, 62, 63, 64, 65, 66, 67, 68, 69, 70, 71, 72, 73, 74, 75, 76, 77, 78, 79, 80, 81, 82, 83, 84, 85, 86, 87, 88, 89, 90, 91, 92, 93, 94, 95, 96, 97, 98, 99, 100, 101, 102, 103, 104, 105, 106, 107, 108, 109, 110, 111, 112, 113, 114, 115, 116, 117, 118, 119, 120, 121, 122, 123, 124, 125, 126, 127, 128, 129, 130, 131, 132, 133, 134, 135, 136, 137, 138, 139, 140, 141, 142, 143, 144, 145, 146, 147, 148, 149, 150, 151, 152, 153, 154, 155, 156, 157, 158, 159, 160, 161, 162, 163, 164],
      "AcquisitionTime": ["112206.042500", "112208.050000", "112210.060000", "112212.067500", "112214.075000", "112216.082500", "112218.090000", "112220.100000", "112222.107500", "112224.115000", "112226.122500", "112228.130000", "112230.140000", "112232.147500", "112234.155000", "112236.162500", "112238.172500", "112240.180000", "112242.187500", "112244.195000", "112246.202500", "112248.212500", "112250.220000", "112252.227500", "112254.235000", "112256.242500", "112258.252500", "112300.260000", "112302.267500", "112304.275000", "112306.285000", "112308.292500", "112310.300000", "112312.307500", "112314.315000", "112316.325000", "112318.332500", "112320.340000", "112322.347500", "112324.355000", "112326.365000", "112328.372500", "112330.380000", "112332.387500", "112334.397500", "112336.405000", "112338.412500", "112340.420000", "112342.427500", "112344.437500", "112346.445000", "112348.452500", "112350.460000", "112352.467500", "112354.477500", "112356.485000", "112358.492500", "112400.500000", "112402.507500", "112404.517500", "112406.525000", "112408.532500", "112410.540000", "112412.550000", "112414.557500", "112416.565000", "112418.572500", "112420.580000", "112422.590000", "112424.597500", "112426.605000", "112428.612500", "112430.620000", "112432.630000", "112434.637500", "112436.645000", "112438.652500", "112440.662500", "112442.670000", "112444.677500", "112446.685000", "112448.692500", "112450.702500", "112452.710000", "112454.717500", "112456.725000", "112458.732500", "112500.742500", "112502.750000", "112504.757500", "112506.765000", "112508.775000", "112510.782500", "112512.790000", "112514.797500", "112516.805000", "112518.815000", "112520.822500", "112522.830000", "112524.837500", "112526.845000", "112528.855000", "112530.862500", "112532.870000", "112534.877500", "112536.887500", "112538.895000", "112540.902500", "112542.910000", "112544.917500", "112546.927500", "112548.935000", "112550.942500", "112552.950000", "112554.957500", "112556.967500", "112558.975000", "112600.982500", "112602.990000", "112604.997500", "112607.007500", "112609.015000", "112611.022500", "112613.030000", "112615.040000", "112617.047500", "112619.055000", "112621.062500", "112623.070000", "112625.080000", "112627.087500", "112629.095000", "112631.102500", "112633.110000", "112635.120000", "112637.127500", "112639.135000", "112641.142500", "112643.152500", "112645.160000", "112647.167500", "112649.175000", "112651.182500", "112653.192500", "112655.200000", "112657.207500", "112659.215000", "112701.222500", "112703.232500", "112705.240000", "112707.247500", "112709.255000", "112711.265000", "112713.272500", "112715.280000", "112717.287500", "112719.295000", "112721.305000", "112723.312500", "112725.320000", "112727.327500", "112729.335000", "112731.345000", "112733.352500"],
      "ContentTime": ["112301.437000", "112301.437000", "112301.453000", "112301.453000", "112301.453000", "112301.453000", "112301.453000", "112301.453000", "112301.453000", "112301.453000", "112301.468000", "112301.468000", "112301.468000", "112301.468000", "112301.468000", "112301.468000", "112301.484000", "112301.484000", "112301.484000", "112301.484000", "112301.484000", "112301.484000", "112301.484000", "112301.500000", "112301.500000", "112301.500000", "112301.500000", "112341.437000", "112341.437000", "112341.437000", "112341.437000", "112341.437000", "112341.453000", "112341.453000", "112341.453000", "112341.453000", "112341.453000", "112341.453000", "112341.453000", "112341.453000", "112341.468000", "112341.468000", "112341.468000", "112341.468000", "112341.468000", "112341.468000", "112341.468000", "112421.437000", "112421.437000", "112421.453000", "112421.453000", "112421.453000", "112421.453000", "112421.453000", "112421.468000", "112421.468000", "112421.468000", "112421.468000", "112421.468000", "112421.468000", "112421.468000", "112421.468000", "112421.484000", "112421.484000", "112421.484000", "112421.484000", "112421.484000", "112501.437000", "112501.437000", "112501.437000", "112501.437000", "112501.437000", "112501.453000", "112501.453000", "112501.453000", "112501.453000", "112501.453000", "112501.453000", "112501.453000", "112501.453000", "112501.468000", "112501.468000", "112501.468000", "112501.468000", "112501.468000", "112501.468000", "112501.468000", "112541.437000", "112541.437000", "112541.437000", "112541.437000", "112541.437000", "112541.453000", "112541.453000", "112541.453000", "112541.468000", "112541.468000", "112541.468000", "112541.468000", "112541.468000", "112541.468000", "112541.468000", "112541.468000", "112541.484000", "112541.484000", "112541.484000", "112541.484000", "112601.437000", "112601.437000", "112601.437000", "112601.437000", "112601.437000", "112601.453000", "112601.453000", "112601.453000", "112601.453000", "112601.453000", "112641.437000", "112641.437000", "112641.437000", "112641.437000", "112641.437000", "112641.453000", "112641.453000", "112641.453000", "112641.453000", "112641.453000", "112641.453000", "112641.453000", "112641.453000", "112641.468000", "112641.468000", "112641.468000", "112641.468000", "112641.468000", "112641.468000", "112641.468000", "112721.437000", "112721.437000", "112721.453000", "112721.453000", "112721.453000", "112721.453000", "112721.453000", "112721.453000", "112721.453000", "112721.468000", "112721.468000", "112721.468000", "112721.468000", "112721.468000", "112721.468000", "112721.484000", "112721.484000", "112721.484000", "112721.484000", "112721.484000", "112734.890000", "112734.890000", "112734.890000", "112734.906000", "112734.906000", "112734.906000", "112734.906000"],
      "InstanceCreationTime": ["112301.437000", "112301.437000", "112301.453000", "112301.453000", "112301.453000", "112301.453000", "112301.453000", "112301.453000", "112301.453000", "112301.453000", "112301.468000", "112301.468000", "112301.468000", "112301.468000", "112301.468000", "112301.468000", "112301.484000", "112301.484000", "112301.484000", "112301.484000", "112301.484000", "112301.484000", "112301.484000", "112301.500000", "112301.500000", "112301.500000", "112301.500000", "112341.437000", "112341.437000", "112341.437000", "112341.437000", "112341.437000", "112341.453000", "112341.453000", "112341.453000", "112341.453000", "112341.453000", "112341.453000", "112341.453000", "112341.453000", "112341.468000", "112341.468000", "112341.468000", "112341.468000", "112341.468000", "112341.468000", "112341.468000", "112421.437000", "112421.437000", "112421.453000", "112421.453000", "112421.453000", "112421.453000", "112421.453000", "112421.468000", "112421.468000", "112421.468000", "112421.468000", "112421.468000", "112421.468000", "112421.468000", "112421.468000", "112421.484000", "112421.484000", "112421.484000", "112421.484000", "112421.484000", "112501.437000", "112501.437000", "112501.437000", "112501.437000", "112501.437000", "112501.453000", "112501.453000", "112501.453000", "112501.453000", "112501.453000", "112501.453000", "112501.453000", "112501.453000", "112501.468000", "112501.468000", "112501.468000", "112501.468000", "112501.468000", "112501.468000", "112501.468000", "112541.437000", "112541.437000", "112541.437000", "112541.437000", "112541.437000", "112541.453000", "112541.453000", "112541.453000", "112541.468000", "112541.468000", "112541.468000", "112541.468000", "112541.468000", "112541.468000", "112541.468000", "112541.468000", "112541.484000", "112541.484000", "112541.484000", "112541.484000", "112601.437000", "112601.437000", "112601.437000", "112601.437000", "112601.437000", "112601.453000", "112601.453000", "112601.453000", "112601.453000", "112601.453000", "112641.437000", "112641.437000", "112641.437000", "112641.437000", "112641.437000", "112641.453000", "112641.453000", "112641.453000", "112641.453000", "112641.453000", "112641.453000", "112641.453000", "112641.453000", "112641.468000", "112641.468000", "112641.468000", "112641.468000", "112641.468000", "112641.468000", "112641.468000", "112721.437000", "112721.437000", "112721.453000", "112721.453000", "112721.453000", "112721.453000", "112721.453000", "112721.453000", "112721.453000", "112721.468000", "112721.468000", "112721.468000", "112721.468000", "112721.468000", "112721.468000", "112721.484000", "112721.484000", "112721.484000", "112721.484000", "112721.484000", "112734.890000", "112734.890000", "112734.890000", "112734.906000", "112734.906000", "112734.906000", "112734.906000"],
      "InstanceNumber": [1, 2, 3, 4, 5, 6, 7, 8, 9, 10, 11, 12, 13, 14, 15, 16, 17, 18, 19, 20, 21, 22, 23, 24, 25, 26, 27, 28, 29, 30, 31, 32, 33, 34, 35, 36, 37, 38, 39, 40, 41, 42, 43, 44, 45, 46, 47, 48, 49, 50, 51, 52, 53, 54, 55, 56, 57, 58, 59, 60, 61, 62, 63, 64, 65, 66, 67, 68, 69, 70, 71, 72, 73, 74, 75, 76, 77, 78, 79, 80, 81, 82, 83, 84, 85, 86, 87, 88, 89, 90, 91, 92, 93, 94, 95, 96, 97, 98, 99, 100, 101, 102, 103, 104, 105, 106, 107, 108, 109, 110, 111, 112, 113, 114, 115, 116, 117, 118, 119, 120, 121, 122, 123, 124, 125, 126, 127, 128, 129, 130, 131, 132, 133, 134, 135, 136, 137, 138, 139, 140, 141, 142, 143, 144, 145, 146, 147, 148, 149, 150, 151, 152, 153, 154, 155, 156, 157, 158, 159, 160, 161, 162, 163, 164],
      "LargestImagePixelValue": [2020, 1794, 1773, 1764, 1760, 1761, 1752, 1755, 1816, 1789, 1789, 1791, 1931, 1831, 1782, 1832, 1831, 1787, 1800, 1805, 1911, 1796, 1895, 1796, 1796, 1803, 1810, 1780, 1789, 1785, 1782, 1803, 1787, 1800, 1794, 1791, 1793, 1802, 1787, 1814, 1806, 1808, 1917, 1934, 1791, 1792, 1803, 1794, 1811, 1803, 1824, 1823, 1823, 1806, 1837, 2010, 1811, 1820, 1793, 2153, 2138, 1831, 1803, 1822, 1818, 1818, 1806, 1802, 1795, 1793, 1811, 1812, 1820, 1812, 1809, 1830, 1804, 1834, 1805, 1818, 1815, 1831, 1795, 1795, 1801, 1812, 1805, 1806, 1801, 1828, 1807, 1820, 1798, 1812, 1799, 1797, 1809, 1812, 1821, 1792, 1869, 1868, 1974, 1795, 1817, 1796, 1787, 1807, 1816, 1821, 1830, 1830, 1805, 1813, 1812, 1806, 1826, 1823, 1830, 1830, 1819, 1823, 1834, 1829, 1821, 1822, 1840, 1831, 1825, 1807, 1901, 1824, 1814, 1803, 1812, 1808, 1809, 1809, 1815, 1800, 1791, 1817, 1798, 1797, 1810, 1805, 1797, 1804, 1805, 1803, 1810, 1783, 1788, 1803, 1796, 1806, 1809, 1823, 1776, 1812, 1793, 1805, 1839, 1807],
      "WindowCenter": [754.0, 750.0, 749.0, 749.0, 750.0, 750.0, 751.0, 751.0, 752.0, 752.0, 752.0, 752.0, 752.0, 751.0, 750.0, 751.0, 752.0, 752.0, 752.0, 752.0, 752.0, 751.0, 751.0, 750.0, 749.0, 750.0, 751.0, 751.0, 751.0, 752.0, 752.0, 752.0, 752.0, 752.0, 752.0, 752.0, 752.0, 752.0, 752.0, 753.0, 753.0, 752.0, 751.0, 750.0, 749.0, 749.0, 750.0, 751.0, 751.0, 752.0, 752.0, 752.0, 752.0, 752.0, 753.0, 754.0, 754.0, 753.0, 752.0, 753.0, 751.0, 748.0, 747.0, 748.0, 749.0, 749.0, 751.0, 752.0, 752.0, 753.0, 753.0, 754.0, 754.0, 754.0, 754.0, 754.0, 754.0, 754.0, 754.0, 754.0, 754.0, 754.0, 753.0, 753.0, 753.0, 752.0, 752.0, 752.0, 752.0, 752.0, 752.0, 753.0, 752.0, 752.0, 752.0, 752.0, 753.0, 753.0, 753.0, 754.0, 753.0, 752.0, 751.0, 749.0, 750.0, 750.0, 750.0, 752.0, 752.0, 752.0, 752.0, 752.0, 752.0, 752.0, 752.0, 753.0, 753.0, 753.0, 753.0, 752.0, 752.0, 752.0, 754.0, 754.0, 754.0, 754.0, 754.0, 755.0, 755.0, 753.0, 753.0, 752.0, 752.0, 752.0, 752.0, 752.0, 753.0, 753.0, 754.0, 754.0, 754.0, 754.0, 754.0, 755.0, 755.0, 754.0, 754.0, 754.0, 754.0, 754.0, 754.0, 754.0, 754.0, 754.0, 754.0, 754.0, 754.0, 754.0, 754.0, 754.0, 754.0, 754.0, 754.0, 754.0],
      "WindowWidth": [1630.0, 1619.0, 1617.0, 1617.0, 1618.0, 1619.0, 1622.0, 1623.0, 1626.0, 1625.0, 1626.0, 1623.0, 1624.0, 1622.0, 1619.0, 1622.0, 1625.0, 1623.0, 1626.0, 1626.0, 1626.0, 1621.0, 1622.0, 1619.0, 1618.0, 1619.0, 1622.0, 1621.0, 1623.0, 1624.0, 1624.0, 1625.0, 1625.0, 1626.0, 1625.0, 1625.0, 1624.0, 1625.0, 1625.0, 1626.0, 1627.0, 1623.0, 1622.0, 1620.0, 1616.0, 1617.0, 1619.0, 1621.0, 1623.0, 1624.0, 1625.0, 1626.0, 1625.0, 1625.0, 1628.0, 1631.0, 1629.0, 1628.0, 1625.0, 1627.0, 1622.0, 1613.0, 1612.0, 1615.0, 1617.0, 1618.0, 1621.0, 1623.0, 1625.0, 1626.0, 1628.0, 1629.0, 1630.0, 1628.0, 1628.0, 1630.0, 1629.0, 1630.0, 1629.0, 1629.0, 1629.0, 1629.0, 1626.0, 1626.0, 1626.0, 1625.0, 1625.0, 1625.0, 1625.0, 1626.0, 1625.0, 1626.0, 1625.0, 1625.0, 1625.0, 1624.0, 1627.0, 1627.0, 1627.0, 1628.0, 1627.0, 1623.0, 1622.0, 1617.0, 1618.0, 1619.0, 1619.0, 1623.0, 1625.0, 1624.0, 1623.0, 1624.0, 1624.0, 1625.0, 1625.0, 1626.0, 1627.0, 1626.0, 1627.0, 1625.0, 1626.0, 1625.0, 1629.0, 1629.0, 1628.0, 1628.0, 1630.0, 1631.0, 1631.0, 1627.0, 1627.0, 1623.0, 1623.0, 1623.0, 1623.0, 1624.0, 1626.0, 1628.0, 1629.0, 1629.0, 1629.0, 1630.0, 1630.0, 1631.0, 1630.0, 1630.0, 1629.0, 1629.0, 1628.0, 1628.0, 1628.0, 1628.0, 1628.0, 1629.0, 1629.0, 1628.0, 1628.0, 1630.0, 1629.0, 1630.0, 1629.0, 1628.0, 1629.0, 1628.0]
    },
    "slices": {}
  }
}