{
  "AcquisitionMatrixPE": 64,
  "AcquisitionNumber": 1,
  "AcquisitionTime": "12:34:34.530000",
  "BandwidthPerPixelPhaseEncode": 33.967,
  "BaseResolution": 64,
  "CoilCombinationMethod": "Sum of Squares",
  "CoilString": "C:HEA;HEP",
  "ConversionSoftware": "dcm2niix",
  "ConversionSoftwareVersion": "v1.0.20220720",
  "DerivedVendorReportedEchoSpacing": 0.000460005,
  "DeviceSerialNumber": "35193",
  "DwellTime": 3.1e-06,
  "EchoTime": 0.03,
  "EffectiveEchoSpacing": 0.000460005,
  "FlipAngle": 90,
  "HeudiconvVersion": "1.1.6",
  "ImageOrientationPatientDICOM": [0.998904, 0.0418756, 0.0209241, -0.0418664, 0.999123, -0.000876977],
  "ImageOrientationText": "Tra>Sag(1.2)",
  "ImageType": [
    "ORIGINAL",
    "PRIMARY",
    "M",
    "ND",
    "MOSAIC"
],
  "ImagingFrequency": 123.254,
  "InPlanePhaseEncodingDirectionDICOM": "COL",
  "InstitutionAddress": "Xinjiekouwai Street No 19,Beijing,Haidian District,CN,100875",
  "InstitutionName": "BNU MRI Center",
  "InstitutionalDepartmentName": "Department",
  "MRAcquisitionType": "2D",
  "MagneticFieldStrength": 3,
  "Manufacturer": "Siemens",
  "ManufacturersModelName": "TrioTim",
  "MatrixCoilMode": "SENSE",
  "Modality": "MR",
  "NonlinearGradientCorrection": false,
  "PartialFourier": 1,
  "PatientPosition": "HFS",
  "PercentPhaseFOV": 100,
  "PercentSampling": 100,
  "PhaseEncodingDirection": "j-",
  "PhaseEncodingSteps": 64,
  "PhaseResolution": 1,
  "PixelBandwidth": 2520,
  "ProcedureStepDescription": "BNU_cst_2015^Guo.TaoMei",
  "ProtocolName": "ge_func_3x3x4_164",
  "PulseSequenceDetails": "%SiemensSeq%\\ep2d_bold",
  "ReceiveCoilName": "HeadMatrix",
  "ReconMatrixPE": 64,
  "RepetitionTime": 2,
  "SAR": 0.129734,
  "ScanOptions": "FS",
  "ScanningSequence": "EP",
  "SequenceName": "*epfid2d1_64",
  "SequenceVariant": "SK",
  "SeriesDescription": "ge_func_3x3x4_164",
  "SeriesNumber": 4,
  "ShimSetting": [-4493, -19359, -9854, 1009, -43, -856, -208, -103],
  "SliceThickness": 4,
  "SliceTiming": [0, 1.0325, 0.06, 1.095, 0.12, 1.155, 0.1825, 1.215, 0.2425, 1.2775, 0.3025, 1.3375, 0.365, 1.3975, 0.425, 1.46, 0.485, 1.52, 0.5475, 1.58, 0.6075, 1.6425, 0.6675, 1.7025, 0.73, 1.7625, 0.79, 1.825, 0.85, 1.885, 0.9125, 1.945, 0.9725],
  "SoftwareVersions": "syngo MR B17",
  "SpacingBetweenSlices": 4.6,
  "StationName": "MRC35193",
  "TaskName": "LanguageControl",
  "TotalReadoutTime": 0.0289803,
  "TxRefAmp": 353.965,
  "dcmmeta_affine": [
    [-3.1215741634368896, -0.13083259761333466, 0.09633512794971466, 115.2240982055664],
    [-0.130861297249794, 3.1222589015960693, -2.323942149828895e-09, -75.73499298095703],
    [0.06538765132427216, 0.0027405538130551577, 4.598991394042969, -93.97808837890625],
    [0.0, 0.0, 0.0, 1.0]
],
  "dcmmeta_reorient_transform": [
    [0.0, -1.0, 0.0, 63.0],
    [1.0, 0.0, 0.0, 0.0],
    [0.0, 0.0, 1.0, 0.0],
    [0.0, 0.0, 0.0, 1.0]
],
  "dcmmeta_shape": [64, 64, 33, 164],
  "dcmmeta_slice_dim": 2,
  "dcmmeta_version": 0.6,
  "global": {
    "const": {
      "AcquisitionMatrix": [64, 0, 0, 64],
      "AngioFlag": "N",
      "BitsAllocated": 16,
      "BitsStored": 12,
      "Columns": 384,
      "EchoNumbers": 1,
      "EchoTime": 30.0,
      "EchoTrainLength": 1,
      "FlipAngle": 90.0,
      "HighBit": 11,
      "ImageOrientationPatient": [0.99890370761281, 0.04187561427122, 0.02092404948355, -0.0418664302467, 0.99912283175264, -0.0008769771868],
      "ImagePositionPatient": [-585.50028142055, -641.46653740191, -103.82897122229],
      "ImageType": [
        "ORIGINAL",
        "PRIMARY",
        "M",
        "ND",
        "MOSAIC"
],
      "ImagedNucleus": "1H",
      "ImagingFrequency": 123.253744,
      "InPlanePhaseEncodingDirection": "COL",
      "MRAcquisitionType": "2D",
      "MagneticFieldStrength": 3.0,
      "Manufacturer": "SIEMENS",
      "ManufacturerModelName": "TrioTim",
      "Modality": "MR",
      "NumberOfAverages": 1.0,
      "NumberOfPhaseEncodingSteps": 64,
      "PercentPhaseFieldOfView": 100.0,
      "PercentSampling": 100.0,
      "PerformedProcedureStepStartTime": "121858.453000",
      "PhotometricInterpretation": "MONOCHROME2",
      "PixelBandwidth": 2520.0,
      "PixelRepresentation": 0,
      "PixelSpacing": [3.125, 3.125],
      "ProtocolName": "ge_func_3x3x4_164",
      "RepetitionTime": 2000.0,
      "Rows": 384,
      "SAR": 0.12973352143229,
      "SamplesPerPixel": 1,
      "ScanOptions": "FS",
      "ScanningSequence": "EP",
      "SequenceName": "*epfid2d1_64",
      "SequenceVariant": "SK",
      "SeriesDescription": "ge_func_3x3x4_164",
      "SeriesNumber": 4,
      "SeriesTime": "123515.187000",
      "SliceLocation": -91.544407609427,
      "SliceThickness": 4.0,
      "SmallestImagePixelValue": 0,
      "SoftwareVersions": "syngo MR B17",
      "SpacingBetweenSlices": 4.600000011876,
      "SpecificCharacterSet": "ISO_IR 100",
      "StudyID": "1",
      "StudyTime": "121857.640000",
      "TransmitCoilName": "Body",
      "VariableFlipAngleFlag": "N",
      "WindowCenterWidthExplanation": "Algo1",
      "dBdt": 0.0},
    "slices": {}
  },
  "time": {
    "samples": {
      "AcquisitionNumber": [1, 2, 3, 4, 5, 6, 7, 8, 9, 10, 11, 12, 13, 14, 15, 16, 17, 18, 19, 20, 21, 22, 23, 24, 25, 26, 27, 28, 29, 30, 31, 32, 33, 34, 35, 36, 37, 38, 39, 40, 41, 42, 43, 44, 45, 46, 47, 48, 49, 50, 51, 52, 53, 54, 55, 56, 57, 58, 59, 60, 61, 62, 63, 64, 65, 66, 67, 68, 69, 70, 71, 72, 73, 74, 75, 76, 77, 78, 79, 80, 81, 82, 83, 84, 85, 86, 87, 88, 89, 90, 91, 92, 93, 94, 95, 96, 97, 98, 99, 100, 101, 102, 103, 104, 105, 106, 107, 108, 109, 110, 111, 112, 113, 114, 115, 116, 117, 118, 119, 120, 121, 122, 123, 124, 125, 126, 127, 128, 129, 130, 131, 132, 133, 134, 135, 136, 137, 138, 139, 140, 141, 142, 143, 144, 145, 146, 147, 148, 149, 150, 151, 152, 153, 154, 155, 156, 157, 158, 159, 160, 161, 162, 163, 164],
      "AcquisitionTime": ["123434.530000", "123436.537500", "123438.545000", "123440.552500", "123442.562500", "123444.570000", "123446.577500", "123448.585000", "123450.592500", "123452.602500", "123454.610000", "123456.617500", "123458.625000", "123500.632500", "123502.642500", "123504.650000", "123506.657500", "123508.665000", "123510.675000", "123512.682500", "123514.690000", "123516.697500", "123518.705000", "123520.715000", "123522.722500", "123524.730000", "123526.737500", "123528.745000", "123530.755000", "123532.762500", "123534.770000", "123536.777500", "123538.787500", "123540.795000", "123542.802500", "123544.810000", "123546.817500", "123548.827500", "123550.835000", "123552.842500", "123554.850000", "123556.857500", "123558.867500", "123600.875000", "123602.882500", "123604.890000", "123606.897500", "123608.907500", "123610.915000", "123612.922500", "123614.930000", "123616.940000", "123618.947500", "123620.955000", "123622.962500", "123624.970000", "123626.980000", "123628.987500", "123630.995000", "123633.002500", "123635.010000", "123637.020000", "123639.027500", "123641.035000", "123643.042500", "123645.052500", "123647.060000", "123649.067500", "123651.075000", "123653.082500", "123655.092500", "123657.100000", "123659.107500", "123701.115000", "123703.122500", "123705.132500", "123707.140000", "123709.147500", "123711.155000", "123713.165000", "123715.172500", "123717.180000", "123719.187500", "123721.195000", "123723.205000", "123725.212500", "123727.220000", "123729.227500", "123731.235000", "123733.245000", "123735.252500", "123737.260000", "123739.267500", "123741.275000", "123743.285000", "123745.292500", "123747.300000", "123749.307500", "123751.317500", "123753.325000", "123755.332500", "123757.340000", "123759.347500", "123801.357500", "123803.365000", "123805.372500", "123807.380000", "123809.387500", "123811.397500", "123813.405000", "123815.412500", "123817.420000", "123819.430000", "123821.437500", "123823.445000", "123825.452500", "123827.460000", "123829.470000", "123831.477500", "123833.485000", "123835.492500", "123837.500000", "123839.510000", "123841.517500", "123843.525000", "123845.532500", "123847.542500", "123849.550000", "123851.557500", "123853.565000", "123855.572500", "123857.582500", "123859.590000", "123901.597500", "123903.605000", "123905.612500", "123907.622500", "123909.630000", "123911.637500", "123913.645000", "123915.652500", "123917.662500", "123919.670000", "123921.677500", "123923.685000", "123925.695000", "123927.702500", "123929.710000", "123931.717500", "123933.725000", "123935.735000", "123937.742500", "123939.750000", "123941.757500", "123943.765000", "123945.775000", "123947.782500", "123949.790000", "123951.797500", "123953.807500", "123955.815000", "123957.822500", "123959.830000", "124001.837500"],
      "ContentTime": ["123515.203000", "123515.203000", "123515.203000", "123515.218000", "123515.218000", "123515.218000", "123515.218000", "123515.218000", "123515.218000", "123515.218000", "123515.218000", "123515.234000", "123515.234000", "123515.234000", "123515.234000", "123515.234000", "123515.234000", "123515.234000", "123515.234000", "123515.250000", "123555.187000", "123555.187000", "123555.187000", "123555.203000", "123555.203000", "123555.203000", "123555.203000", "123555.203000", "123555.203000", "123555.203000", "123555.218000", "123555.218000", "123555.218000", "123555.218000", "123555.218000", "123555.218000", "123555.218000", "123555.218000", "123555.234000", "123555.234000", "123635.187000", "123635.187000", "123635.203000", "123635.203000", "123635.203000", "123635.203000", "123635.203000", "123635.203000", "123635.203000", "123635.218000", "123635.218000", "123635.218000", "123635.218000", "123635.218000", "123635.218000", "123635.218000", "123635.234000", "123635.234000", "123635.234000", "123635.234000", "123715.187000", "123715.187000", "123715.203000", "123715.203000", "123715.203000", "123715.203000", "123715.203000", "123715.218000", "123715.218000", "123715.218000", "123715.218000", "123715.218000", "123715.234000", "123715.234000", "123715.234000", "123715.234000", "123715.234000", "123715.234000", "123715.234000", "123715.234000", "123755.187000", "123755.187000", "123755.187000", "123755.203000", "123755.203000", "123755.203000", "123755.203000", "123755.218000", "123755.218000", "123755.218000", "123755.218000", "123755.234000", "123755.234000", "123755.234000", "123755.234000", "123755.250000", "123755.250000", "123755.250000", "123755.250000", "123755.250000", "123835.187000", "123835.203000", "123835.203000", "123835.203000", "123835.203000", "123835.203000", "123835.203000", "123835.203000", "123835.218000", "123835.218000", "123835.218000", "123835.218000", "123835.234000", "123835.234000", "123835.234000", "123835.234000", "123835.250000", "123835.250000", "123835.250000", "123835.250000", "123915.187000", "123915.187000", "123915.203000", "123915.203000", "123915.203000", "123915.203000", "123915.203000", "123915.218000", "123915.218000", "123915.218000", "123915.218000", "123915.218000", "123915.218000", "123915.234000", "123915.234000", "123915.234000", "123915.234000", "123915.234000", "123915.234000", "123915.234000", "123955.187000", "123955.187000", "123955.203000", "123955.203000", "123955.203000", "123955.203000", "123955.203000", "123955.203000", "123955.203000", "123955.203000", "123955.218000", "123955.218000", "123955.218000", "123955.218000", "123955.218000", "123955.218000", "123955.218000", "123955.218000", "123955.234000", "123955.234000", "124003.000000", "124003.000000", "124003.015000", "124003.015000"],
      "InstanceCreationTime": ["123515.203000", "123515.203000", "123515.203000", "123515.218000", "123515.218000", "123515.218000", "123515.218000", "123515.218000", "123515.218000", "123515.218000", "123515.218000", "123515.234000", "123515.234000", "123515.234000", "123515.234000", "123515.234000", "123515.234000", "123515.234000", "123515.234000", "123515.250000", "123555.187000", "123555.187000", "123555.187000", "123555.203000", "123555.203000", "123555.203000", "123555.203000", "123555.203000", "123555.203000", "123555.203000", "123555.218000", "123555.218000", "123555.218000", "123555.218000", "123555.218000", "123555.218000", "123555.218000", "123555.218000", "123555.234000", "123555.234000", "123635.187000", "123635.187000", "123635.203000", "123635.203000", "123635.203000", "123635.203000", "123635.203000", "123635.203000", "123635.203000", "123635.218000", "123635.218000", "123635.218000", "123635.218000", "123635.218000", "123635.218000", "123635.218000", "123635.234000", "123635.234000", "123635.234000", "123635.234000", "123715.187000", "123715.187000", "123715.203000", "123715.203000", "123715.203000", "123715.203000", "123715.203000", "123715.218000", "123715.218000", "123715.218000", "123715.218000", "123715.218000", "123715.234000", "123715.234000", "123715.234000", "123715.234000", "123715.234000", "123715.234000", "123715.234000", "123715.234000", "123755.187000", "123755.187000", "123755.187000", "123755.203000", "123755.203000", "123755.203000", "123755.203000", "123755.218000", "123755.218000", "123755.218000", "123755.218000", "123755.234000", "123755.234000", "123755.234000", "123755.234000", "123755.250000", "123755.250000", "123755.250000", "123755.250000", "123755.250000", "123835.187000", "123835.203000", "123835.203000", "123835.203000", "123835.203000", "123835.203000", "123835.203000", "123835.203000", "123835.218000", "123835.218000", "123835.218000", "123835.218000", "123835.234000", "123835.234000", "123835.234000", "123835.234000", "123835.250000", "123835.250000", "123835.250000", "123835.250000", "123915.187000", "123915.187000", "123915.203000", "123915.203000", "123915.203000", "123915.203000", "123915.203000", "123915.218000", "123915.218000", "123915.218000", "123915.218000", "123915.218000", "123915.218000", "123915.234000", "123915.234000", "123915.234000", "123915.234000", "123915.234000", "123915.234000", "123915.234000", "123955.187000", "123955.187000", "123955.203000", "123955.203000", "123955.203000", "123955.203000", "123955.203000", "123955.203000", "123955.203000", "123955.203000", "123955.218000", "123955.218000", "123955.218000", "123955.218000", "123955.218000", "123955.218000", "123955.218000", "123955.218000", "123955.234000", "123955.234000", "124003.000000", "124003.000000", "124003.015000", "124003.015000"],
      "InstanceNumber": [1, 2, 3, 4, 5, 6, 7, 8, 9, 10, 11, 12, 13, 14, 15, 16, 17, 18, 19, 20, 21, 22, 23, 24, 25, 26, 27, 28, 29, 30, 31, 32, 33, 34, 35, 36, 37, 38, 39, 40, 41, 42, 43, 44, 45, 46, 47, 48, 49, 50, 51, 52, 53, 54, 55, 56, 57, 58, 59, 60, 61, 62, 63, 64, 65, 66, 67, 68, 69, 70, 71, 72, 73, 74, 75, 76, 77, 78, 79, 80, 81, 82, 83, 84, 85, 86, 87, 88, 89, 90, 91, 92, 93, 94, 95, 96, 97, 98, 99, 100, 101, 102, 103, 104, 105, 106, 107, 108, 109, 110, 111, 112, 113, 114, 115, 116, 117, 118, 119, 120, 121, 122, 123, 124, 125, 126, 127, 128, 129, 130, 131, 132, 133, 134, 135, 136, 137, 138, 139, 140, 141, 142, 143, 144, 145, 146, 147, 148, 149, 150, 151, 152, 153, 154, 155, 156, 157, 158, 159, 160, 161, 162, 163, 164],
      "LargestImagePixelValue": [1880, 1810, 1797, 1793, 1814, 1786, 1801, 1794, 1788, 1798, 1965, 1781, 1797, 1797, 1800, 1813, 1840, 1785, 1790, 1815, 1800, 1810, 1839, 1838, 1805, 1812, 1798, 1826, 1837, 1858, 1825, 1838, 1820, 1822, 1827, 1821, 1819, 1817, 1828, 1825, 1811, 1819, 1997, 1805, 1830, 1833, 1832, 1819, 1833, 1824, 1828, 1818, 1861, 1833, 1822, 1826, 1824, 1823, 1843, 1838, 1818, 1826, 1831, 1832, 1814, 1824, 1829, 1822, 1833, 1831, 1832, 1838, 1840, 1838, 1818, 1816, 1808, 1834, 1822, 1819, 1842, 1825, 1842, 1843, 1827, 1843, 1867, 1838, 1827, 1841, 1847, 1829, 1849, 1839, 1828, 1840, 1829, 1863, 1834, 1845, 1835, 1843, 1829, 1819, 1821, 1819, 1836, 1848, 1831, 1828, 1834, 1836, 1818, 1829, 1840, 1838, 1836, 1837, 1838, 1842, 1841, 1845, 1835, 1847, 1831, 1843, 1850, 1842, 1844, 1841, 1839, 1838, 1825, 1848, 1836, 1834, 1828, 1830, 1826, 1821, 1817, 1822, 1840, 1846, 1833, 1840, 1834, 1838, 1830, 1822, 1825, 1833, 1847, 1833, 1825, 1814, 1821, 1851, 1842, 1822, 1858, 1824, 1831, 1819],
      "WindowCenter": [730.0, 727.0, 727.0, 727.0, 727.0, 725.0, 726.0, 725.0, 725.0, 726.0, 727.0, 727.0, 727.0, 727.0, 727.0, 726.0, 727.0, 726.0, 726.0, 726.0, 726.0, 726.0, 728.0, 728.0, 728.0, 728.0, 727.0, 728.0, 728.0, 728.0, 727.0, 728.0, 728.0, 728.0, 727.0, 727.0, 727.0, 727.0, 727.0, 727.0, 727.0, 726.0, 728.0, 727.0, 728.0, 729.0, 728.0, 727.0, 726.0, 726.0, 726.0, 726.0, 726.0, 726.0, 726.0, 727.0, 726.0, 726.0, 727.0, 727.0, 727.0, 728.0, 727.0, 726.0, 726.0, 726.0, 726.0, 726.0, 727.0, 727.0, 728.0, 727.0, 728.0, 728.0, 727.0, 727.0, 727.0, 728.0, 727.0, 727.0, 727.0, 728.0, 728.0, 728.0, 726.0, 726.0, 726.0, 726.0, 726.0, 727.0, 728.0, 728.0, 728.0, 727.0, 727.0, 726.0, 727.0, 728.0, 727.0, 728.0, 728.0, 727.0, 726.0, 727.0, 727.0, 728.0, 727.0, 728.0, 727.0, 727.0, 726.0, 726.0, 726.0, 727.0, 727.0, 727.0, 727.0, 727.0, 728.0, 727.0, 727.0, 728.0, 728.0, 728.0, 728.0, 727.0, 727.0, 727.0, 728.0, 729.0, 728.0, 728.0, 727.0, 727.0, 727.0, 727.0, 726.0, 726.0, 727.0, 726.0, 726.0, 727.0, 728.0, 728.0, 728.0, 727.0, 727.0, 726.0, 726.0, 726.0, 728.0, 728.0, 727.0, 726.0, 727.0, 727.0, 726.0, 726.0, 726.0, 726.0, 727.0, 727.0, 728.0, 727.0],
      "WindowWidth": [1576.0, 1566.0, 1566.0, 1566.0, 1566.0, 1562.0, 1563.0, 1562.0, 1561.0, 1562.0, 1566.0, 1565.0, 1565.0, 1566.0, 1566.0, 1564.0, 1565.0, 1564.0, 1565.0, 1565.0, 1565.0, 1564.0, 1569.0, 1570.0, 1570.0, 1568.0, 1567.0, 1568.0, 1568.0, 1568.0, 1567.0, 1568.0, 1569.0, 1568.0, 1567.0, 1568.0, 1566.0, 1567.0, 1567.0, 1567.0, 1566.0, 1564.0, 1569.0, 1566.0, 1569.0, 1571.0, 1568.0, 1567.0, 1564.0, 1565.0, 1564.0, 1565.0, 1565.0, 1563.0, 1564.0, 1566.0, 1565.0, 1564.0, 1568.0, 1567.0, 1566.0, 1569.0, 1566.0, 1565.0, 1565.0, 1563.0, 1564.0, 1565.0, 1567.0, 1568.0, 1568.0, 1567.0, 1568.0, 1569.0, 1566.0, 1567.0, 1567.0, 1568.0, 1567.0, 1567.0, 1567.0, 1570.0, 1571.0, 1569.0, 1565.0, 1564.0, 1565.0, 1565.0, 1565.0, 1568.0, 1568.0, 1568.0, 1568.0, 1568.0, 1567.0, 1565.0, 1566.0, 1569.0, 1567.0, 1568.0, 1569.0, 1567.0, 1565.0, 1566.0, 1567.0, 1568.0, 1568.0, 1568.0, 1566.0, 1565.0, 1564.0, 1565.0, 1566.0, 1566.0, 1567.0, 1566.0, 1565.0, 1566.0, 1569.0, 1567.0, 1568.0, 1569.0, 1570.0, 1570.0, 1568.0, 1566.0, 1567.0, 1568.0, 1570.0, 1571.0, 1570.0, 1569.0, 1568.0, 1567.0, 1566.0, 1566.0, 1565.0, 1564.0, 1566.0, 1565.0, 1563.0, 1565.0, 1569.0, 1569.0, 1568.0, 1566.0, 1566.0, 1564.0, 1564.0, 1565.0, 1569.0, 1568.0, 1566.0, 1565.0, 1565.0, 1565.0, 1563.0, 1564.0, 1564.0, 1564.0, 1566.0, 1566.0, 1568.0, 1567.0]
    },
    "slices": {}
  }
}