{
  "AcquisitionMatrixPE": 64,
  "AcquisitionNumber": 1,
  "AcquisitionTime": "12:21:23.810000",
  "BandwidthPerPixelPhaseEncode": 33.967,
  "BaseResolution": 64,
  "CoilCombinationMethod": "Sum of Squares",
  "CoilString": "C:HEA;HEP",
  "ConversionSoftware": "dcm2niix",
  "ConversionSoftwareVersion": "v1.0.20220720",
  "DerivedVendorReportedEchoSpacing": 0.000460005,
  "DeviceSerialNumber": "35193",
  "DwellTime": 3.1e-06,
  "EchoTime": 0.03,
  "EffectiveEchoSpacing": 0.000460005,
  "FlipAngle": 90,
  "HeudiconvVersion": "1.1.6",
  "ImageOrientationPatientDICOM": [0.998904, 0.0418756, 0.0209241, -0.0418664, 0.999123, -0.000876977],
  "ImageOrientationText": "Tra>Sag(1.2)",
  "ImageType": [
    "ORIGINAL",
    "PRIMARY",
    "M",
    "ND",
    "MOSAIC"
],
  "ImagingFrequency": 123.254,
  "InPlanePhaseEncodingDirectionDICOM": "COL",
  "InstitutionAddress": "Xinjiekouwai Street No 19,Beijing,Haidian District,CN,100875",
  "InstitutionName": "BNU MRI Center",
  "InstitutionalDepartmentName": "Department",
  "MRAcquisitionType": "2D",
  "MagneticFieldStrength": 3,
  "Manufacturer": "Siemens",
  "ManufacturersModelName": "TrioTim",
  "MatrixCoilMode": "SENSE",
  "Modality": "MR",
  "NonlinearGradientCorrection": false,
  "PartialFourier": 1,
  "PatientPosition": "HFS",
  "PercentPhaseFOV": 100,
  "PercentSampling": 100,
  "PhaseEncodingDirection": "j-",
  "PhaseEncodingSteps": 64,
  "PhaseResolution": 1,
  "PixelBandwidth": 2520,
  "ProcedureStepDescription": "BNU_cst_2015^Guo.TaoMei",
  "ProtocolName": "ge_func_3x3x4_164",
  "PulseSequenceDetails": "%SiemensSeq%\\ep2d_bold",
  "ReceiveCoilName": "HeadMatrix",
  "ReconMatrixPE": 64,
  "RepetitionTime": 2,
  "SAR": 0.129734,
  "ScanOptions": "FS",
  "ScanningSequence": "EP",
  "SequenceName": "*epfid2d1_64",
  "SequenceVariant": "SK",
  "SeriesDescription": "ge_func_3x3x4_164",
  "SeriesNumber": 2,
  "ShimSetting": [-4493, -19359, -9854, 1009, -43, -856, -208, -103],
  "SliceThickness": 4,
  "SliceTiming": [0, 1.035, 0.06, 1.095, 0.1225, 1.155, 0.1825, 1.2175, 0.2425, 1.2775, 0.305, 1.3375, 0.365, 1.4, 0.425, 1.46, 0.4875, 1.52, 0.5475, 1.5825, 0.6075, 1.6425, 0.67, 1.7025, 0.73, 1.765, 0.79, 1.825, 0.8525, 1.885, 0.9125, 1.9475, 0.9725],
  "SoftwareVersions": "syngo MR B17",
  "SpacingBetweenSlices": 4.6,
  "StationName": "MRC35193",
  "TaskName": "CognitiveControl",
  "TotalReadoutTime": 0.0289803,
  "TxRefAmp": 353.965,
  "dcmmeta_affine": [
    [-3.1215741634368896, -0.13083259761333466, 0.09633512794971466, 115.2240982055664],
    [-0.130861297249794, 3.1222589015960693, -2.323942149828895e-09, -75.73499298095703],
    [0.06538765132427216, 0.0027405538130551577, 4.598991394042969, -93.97808837890625],
    [0.0, 0.0, 0.0, 1.0]
],
  "dcmmeta_reorient_transform": [
    [0.0, -1.0, 0.0, 63.0],
    [1.0, 0.0, 0.0, 0.0],
    [0.0, 0.0, 1.0, 0.0],
    [0.0, 0.0, 0.0, 1.0]
],
  "dcmmeta_shape": [64, 64, 33, 164],
  "dcmmeta_slice_dim": 2,
  "dcmmeta_version": 0.6,
  "global": {
    "const": {
      "AcquisitionMatrix": [64, 0, 0, 64],
      "AngioFlag": "N",
      "BitsAllocated": 16,
      "BitsStored": 12,
      "Columns": 384,
      "EchoNumbers": 1,
      "EchoTime": 30.0,
      "EchoTrainLength": 1,
      "FlipAngle": 90.0,
      "HighBit": 11,
      "ImageOrientationPatient": [0.99890370761281, 0.04187561427122, 0.02092404948355, -0.0418664302467, 0.99912283175264, -0.0008769771868],
      "ImagePositionPatient": [-585.50028142055, -641.46653740191, -103.82897122229],
      "ImageType": [
        "ORIGINAL",
        "PRIMARY",
        "M",
        "ND",
        "MOSAIC"
],
      "ImagedNucleus": "1H",
      "ImagingFrequency": 123.253743,
      "InPlanePhaseEncodingDirection": "COL",
      "MRAcquisitionType": "2D",
      "MagneticFieldStrength": 3.0,
      "Manufacturer": "SIEMENS",
      "ManufacturerModelName": "TrioTim",
      "Modality": "MR",
      "NumberOfAverages": 1.0,
      "NumberOfPhaseEncodingSteps": 64,
      "PercentPhaseFieldOfView": 100.0,
      "PercentSampling": 100.0,
      "PerformedProcedureStepStartTime": "121858.453000",
      "PhotometricInterpretation": "MONOCHROME2",
      "PixelBandwidth": 2520.0,
      "PixelRepresentation": 0,
      "PixelSpacing": [3.125, 3.125],
      "ProtocolName": "ge_func_3x3x4_164",
      "RepetitionTime": 2000.0,
      "Rows": 384,
      "SAR": 0.12973352143229,
      "SamplesPerPixel": 1,
      "ScanOptions": "FS",
      "ScanningSequence": "EP",
      "SequenceName": "*epfid2d1_64",
      "SequenceVariant": "SK",
      "SeriesDescription": "ge_func_3x3x4_164",
      "SeriesNumber": 2,
      "SeriesTime": "122207.687000",
      "SliceLocation": -91.544407609427,
      "SliceThickness": 4.0,
      "SmallestImagePixelValue": 0,
      "SoftwareVersions": "syngo MR B17",
      "SpacingBetweenSlices": 4.600000011876,
      "SpecificCharacterSet": "ISO_IR 100",
      "StudyID": "1",
      "StudyTime": "121857.640000",
      "TransmitCoilName": "Body",
      "VariableFlipAngleFlag": "N",
      "WindowCenterWidthExplanation": "Algo1",
      "dBdt": 0.0},
    "slices": {}
  },
  "time": {
    "samples": {
      "AcquisitionNumber": [1, 2, 3, 4, 5, 6, 7, 8, 9, 10, 11, 12, 13, 14, 15, 16, 17, 18, 19, 20, 21, 22, 23, 24, 25, 26, 27, 28, 29, 30, 31, 32, 33, 34, 35, 36, 37, 38, 39, 40, 41, 42, 43, 44, 45, 46, 47, 48, 49, 50, 51, 52, 53, 54, 55, 56, 57, 58, 59, 60, 61, 62, 63, 64, 65, 66, 67, 68, 69, 70, 71, 72, 73, 74, 75, 76, 77, 78, 79, 80, 81, 82, 83, 84, 85, 86, 87, 88, 89, 90, 91, 92, 93, 94, 95, 96, 97, 98, 99, 100, 101, 102, 103, 104, 105, 106, 107, 108, 109, 110, 111, 112, 113, 114, 115, 116, 117, 118, 119, 120, 121, 122, 123, 124, 125, 126, 127, 128, 129, 130, 131, 132, 133, 134, 135, 136, 137, 138, 139, 140, 141, 142, 143, 144, 145, 146, 147, 148, 149, 150, 151, 152, 153, 154, 155, 156, 157, 158, 159, 160, 161, 162, 163, 164],
      "AcquisitionTime": ["122123.810000", "122125.817500", "122127.827500", "122129.835000", "122131.842500", "122133.850000", "122135.857500", "122137.867500", "122139.875000", "122141.882500", "122143.890000", "122145.897500", "122147.907500", "122149.915000", "122151.922500", "122153.930000", "122155.937500", "122157.947500", "122159.955000", "122201.962500", "122203.970000", "122205.980000", "122207.987500", "122209.995000", "122212.002500", "122214.010000", "122216.020000", "122218.027500", "122220.035000", "122222.042500", "122224.050000", "122226.060000", "122228.067500", "122230.075000", "122232.082500", "122234.092500", "122236.100000", "122238.107500", "122240.115000", "122242.122500", "122244.132500", "122246.140000", "122248.147500", "122250.155000", "122252.162500", "122254.172500", "122256.180000", "122258.187500", "122300.195000", "122302.205000", "122304.212500", "122306.220000", "122308.227500", "122310.235000", "122312.245000", "122314.252500", "122316.260000", "122318.267500", "122320.275000", "122322.285000", "122324.292500", "122326.300000", "122328.307500", "122330.317500", "122332.325000", "122334.332500", "122336.340000", "122338.347500", "122340.357500", "122342.365000", "122344.372500", "122346.380000", "122348.387500", "122350.397500", "122352.405000", "122354.412500", "122356.420000", "122358.427500", "122400.437500", "122402.445000", "122404.452500", "122406.460000", "122408.470000", "122410.477500", "122412.485000", "122414.492500", "122416.500000", "122418.510000", "122420.517500", "122422.525000", "122424.532500", "122426.540000", "122428.550000", "122430.557500", "122432.565000", "122434.572500", "122436.582500", "122438.590000", "122440.597500", "122442.605000", "122444.612500", "122446.622500", "122448.630000", "122450.637500", "122452.645000", "122454.652500", "122456.662500", "122458.670000", "122500.677500", "122502.685000", "122504.695000", "122506.702500", "122508.710000", "122510.717500", "122512.725000", "122514.735000", "122516.742500", "122518.750000", "122520.757500", "122522.765000", "122524.775000", "122526.782500", "122528.790000", "122530.797500", "122532.805000", "122534.815000", "122536.822500", "122538.830000", "122540.837500", "122542.847500", "122544.855000", "122546.862500", "122548.870000", "122550.877500", "122552.887500", "122554.895000", "122556.902500", "122558.910000", "122600.917500", "122602.927500", "122604.935000", "122606.942500", "122608.950000", "122610.960000", "122612.967500", "122614.975000", "122616.982500", "122618.990000", "122621.000000", "122623.007500", "122625.015000", "122627.022500", "122629.030000", "122631.040000", "122633.047500", "122635.055000", "122637.062500", "122639.072500", "122641.080000", "122643.087500", "122645.095000", "122647.102500", "122649.112500", "122651.120000"],
      "ContentTime": ["122207.703000", "122207.703000", "122207.703000", "122207.718000", "122207.718000", "122207.718000", "122207.718000", "122207.718000", "122207.718000", "122207.718000", "122207.734000", "122207.734000", "122207.734000", "122207.734000", "122207.734000", "122207.734000", "122207.734000", "122207.734000", "122207.750000", "122207.750000", "122207.750000", "122247.687000", "122247.687000", "122247.687000", "122247.703000", "122247.703000", "122247.703000", "122247.703000", "122247.703000", "122247.703000", "122247.703000", "122247.718000", "122247.718000", "122247.718000", "122247.718000", "122247.718000", "122247.718000", "122247.734000", "122247.734000", "122247.734000", "122247.734000", "122327.687000", "122327.687000", "122327.687000", "122327.703000", "122327.703000", "122327.703000", "122327.703000", "122327.703000", "122327.703000", "122327.718000", "122327.718000", "122327.718000", "122327.718000", "122327.718000", "122327.718000", "122327.718000", "122327.734000", "122327.734000", "122327.734000", "122327.734000", "122407.687000", "122407.687000", "122407.687000", "122407.703000", "122407.703000", "122407.703000", "122407.703000", "122407.703000", "122407.703000", "122407.703000", "122407.703000", "122407.718000", "122407.718000", "122407.718000", "122407.718000", "122407.718000", "122407.734000", "122407.734000", "122407.734000", "122407.734000", "122447.687000", "122447.687000", "122447.703000", "122447.703000", "122447.703000", "122447.703000", "122447.718000", "122447.718000", "122447.718000", "122447.718000", "122447.718000", "122447.718000", "122447.718000", "122447.734000", "122447.734000", "122447.734000", "122447.734000", "122447.734000", "122447.734000", "122447.734000", "122527.687000", "122527.687000", "122527.687000", "122527.703000", "122527.703000", "122527.703000", "122527.703000", "122527.703000", "122527.703000", "122527.703000", "122527.718000", "122527.718000", "122527.718000", "122527.718000", "122527.718000", "122527.718000", "122527.718000", "122527.718000", "122527.734000", "122527.734000", "122607.687000", "122607.703000", "122607.703000", "122607.703000", "122607.703000", "122607.703000", "122607.703000", "122607.703000", "122607.718000", "122607.718000", "122607.718000", "122607.718000", "122607.718000", "122607.718000", "122607.718000", "122607.718000", "122607.734000", "122607.734000", "122607.734000", "122607.734000", "122647.687000", "122647.687000", "122647.687000", "122647.703000", "122647.703000", "122647.703000", "122647.703000", "122647.703000", "122647.703000", "122647.703000", "122647.703000", "122647.718000", "122647.718000", "122647.718000", "122647.718000", "122647.718000", "122647.718000", "122647.718000", "122647.718000", "122647.734000", "122652.578000", "122652.578000", "122652.578000"],
      "InstanceCreationTime": ["122207.703000", "122207.703000", "122207.703000", "122207.718000", "122207.718000", "122207.718000", "122207.718000", "122207.718000", "122207.718000", "122207.718000", "122207.734000", "122207.734000", "122207.734000", "122207.734000", "122207.734000", "122207.734000", "122207.734000", "122207.734000", "122207.750000", "122207.750000", "122207.750000", "122247.687000", "122247.687000", "122247.687000", "122247.703000", "122247.703000", "122247.703000", "122247.703000", "122247.703000", "122247.703000", "122247.703000", "122247.718000", "122247.718000", "122247.718000", "122247.718000", "122247.718000", "122247.718000", "122247.734000", "122247.734000", "122247.734000", "122247.734000", "122327.687000", "122327.687000", "122327.687000", "122327.703000", "122327.703000", "122327.703000", "122327.703000", "122327.703000", "122327.703000", "122327.718000", "122327.718000", "122327.718000", "122327.718000", "122327.718000", "122327.718000", "122327.718000", "122327.734000", "122327.734000", "122327.734000", "122327.734000", "122407.687000", "122407.687000", "122407.687000", "122407.703000", "122407.703000", "122407.703000", "122407.703000", "122407.703000", "122407.703000", "122407.703000", "122407.703000", "122407.718000", "122407.718000", "122407.718000", "122407.718000", "122407.718000", "122407.734000", "122407.734000", "122407.734000", "122407.734000", "122447.687000", "122447.687000", "122447.703000", "122447.703000", "122447.703000", "122447.703000", "122447.718000", "122447.718000", "122447.718000", "122447.718000", "122447.718000", "122447.718000", "122447.718000", "122447.734000", "122447.734000", "122447.734000", "122447.734000", "122447.734000", "122447.734000", "122447.734000", "122527.687000", "122527.687000", "122527.687000", "122527.703000", "122527.703000", "122527.703000", "122527.703000", "122527.703000", "122527.703000", "122527.703000", "122527.718000", "122527.718000", "122527.718000", "122527.718000", "122527.718000", "122527.718000", "122527.718000", "122527.718000", "122527.734000", "122527.734000", "122607.687000", "122607.703000", "122607.703000", "122607.703000", "122607.703000", "122607.703000", "122607.703000", "122607.703000", "122607.718000", "122607.718000", "122607.718000", "122607.718000", "122607.718000", "122607.718000", "122607.718000", "122607.718000", "122607.734000", "122607.734000", "122607.734000", "122607.734000", "122647.687000", "122647.687000", "122647.687000", "122647.703000", "122647.703000", "122647.703000", "122647.703000", "122647.703000", "122647.703000", "122647.703000", "122647.703000", "122647.718000", "122647.718000", "122647.718000", "122647.718000", "122647.718000", "122647.718000", "122647.718000", "122647.718000", "122647.734000", "122652.578000", "122652.578000", "122652.578000"],
      "InstanceNumber": [1, 2, 3, 4, 5, 6, 7, 8, 9, 10, 11, 12, 13, 14, 15, 16, 17, 18, 19, 20, 21, 22, 23, 24, 25, 26, 27, 28, 29, 30, 31, 32, 33, 34, 35, 36, 37, 38, 39, 40, 41, 42, 43, 44, 45, 46, 47, 48, 49, 50, 51, 52, 53, 54, 55, 56, 57, 58, 59, 60, 61, 62, 63, 64, 65, 66, 67, 68, 69, 70, 71, 72, 73, 74, 75, 76, 77, 78, 79, 80, 81, 82, 83, 84, 85, 86, 87, 88, 89, 90, 91, 92, 93, 94, 95, 96, 97, 98, 99, 100, 101, 102, 103, 104, 105, 106, 107, 108, 109, 110, 111, 112, 113, 114, 115, 116, 117, 118, 119, 120, 121, 122, 123, 124, 125, 126, 127, 128, 129, 130, 131, 132, 133, 134, 135, 136, 137, 138, 139, 140, 141, 142, 143, 144, 145, 146, 147, 148, 149, 150, 151, 152, 153, 154, 155, 156, 157, 158, 159, 160, 161, 162, 163, 164],
      "LargestImagePixelValue": [2098, 1754, 1722, 1697, 1710, 1727, 1749, 1704, 1698, 1718, 1707, 1708, 1846, 1709, 1701, 1727, 1709, 1907, 1708, 1711, 1716, 1708, 1705, 1707, 1701, 1715, 1715, 1703, 1716, 1694, 1713, 1719, 1702, 1710, 1695, 1725, 1694, 1713, 1710, 1730, 1717, 1715, 1703, 1701, 1705, 1717, 1708, 1705, 1956, 1716, 1699, 1752, 1710, 1717, 1703, 1718, 1713, 1696, 1709, 1691, 1713, 1700, 1699, 1722, 1710, 1708, 1724, 1709, 1698, 1795, 1709, 1941, 1721, 1708, 1726, 1718, 1936, 1707, 1721, 1719, 1716, 1705, 1708, 1888, 1707, 1720, 1703, 1692, 1752, 1715, 1698, 1705, 1717, 1713, 1709, 1707, 1686, 1704, 1722, 1714, 1696, 1709, 1715, 1720, 1748, 1706, 1703, 1710, 1706, 1714, 1716, 1717, 1698, 1718, 1702, 1728, 1714, 1914, 1707, 1691, 1688, 1912, 1706, 1739, 1696, 1704, 1704, 1847, 1710, 1765, 1703, 1712, 2066, 1711, 1703, 1699, 1699, 1709, 1719, 1697, 1703, 1690, 1705, 1704, 1706, 2039, 1703, 1718, 1698, 1706, 1691, 1699, 1716, 1723, 1729, 1710, 1700, 1705, 1715, 1708, 1723, 1843, 1713, 1698],
      "WindowCenter": [726.0, 721.0, 720.0, 720.0, 721.0, 721.0, 721.0, 721.0, 721.0, 722.0, 722.0, 722.0, 722.0, 721.0, 720.0, 720.0, 721.0, 722.0, 720.0, 720.0, 720.0, 720.0, 720.0, 720.0, 720.0, 720.0, 720.0, 720.0, 720.0, 720.0, 720.0, 721.0, 721.0, 720.0, 720.0, 720.0, 720.0, 720.0, 720.0, 721.0, 721.0, 720.0, 720.0, 719.0, 719.0, 720.0, 720.0, 720.0, 722.0, 721.0, 720.0, 721.0, 720.0, 720.0, 720.0, 721.0, 720.0, 720.0, 720.0, 720.0, 721.0, 721.0, 721.0, 720.0, 720.0, 719.0, 721.0, 722.0, 722.0, 722.0, 721.0, 722.0, 720.0, 720.0, 721.0, 721.0, 722.0, 721.0, 721.0, 722.0, 722.0, 721.0, 721.0, 722.0, 721.0, 722.0, 722.0, 721.0, 721.0, 721.0, 721.0, 721.0, 721.0, 721.0, 722.0, 722.0, 722.0, 722.0, 721.0, 721.0, 721.0, 721.0, 722.0, 721.0, 721.0, 720.0, 721.0, 720.0, 720.0, 720.0, 721.0, 722.0, 722.0, 721.0, 720.0, 720.0, 720.0, 723.0, 722.0, 723.0, 723.0, 725.0, 723.0, 724.0, 724.0, 724.0, 724.0, 724.0, 722.0, 721.0, 721.0, 720.0, 723.0, 722.0, 722.0, 723.0, 723.0, 722.0, 723.0, 723.0, 723.0, 723.0, 723.0, 723.0, 724.0, 724.0, 722.0, 722.0, 722.0, 722.0, 723.0, 723.0, 722.0, 722.0, 723.0, 722.0, 722.0, 723.0, 724.0, 724.0, 724.0, 723.0, 722.0, 722.0],
      "WindowWidth": [1565.0, 1550.0, 1550.0, 1550.0, 1551.0, 1551.0, 1552.0, 1551.0, 1551.0, 1553.0, 1553.0, 1553.0, 1554.0, 1551.0, 1548.0, 1549.0, 1550.0, 1553.0, 1549.0, 1548.0, 1547.0, 1548.0, 1548.0, 1549.0, 1548.0, 1549.0, 1548.0, 1548.0, 1549.0, 1548.0, 1549.0, 1552.0, 1550.0, 1548.0, 1548.0, 1550.0, 1550.0, 1550.0, 1549.0, 1551.0, 1551.0, 1549.0, 1548.0, 1547.0, 1547.0, 1548.0, 1548.0, 1549.0, 1554.0, 1550.0, 1548.0, 1551.0, 1548.0, 1548.0, 1549.0, 1552.0, 1550.0, 1549.0, 1549.0, 1549.0, 1550.0, 1550.0, 1550.0, 1548.0, 1547.0, 1546.0, 1551.0, 1552.0, 1553.0, 1553.0, 1550.0, 1554.0, 1548.0, 1548.0, 1549.0, 1551.0, 1554.0, 1550.0, 1551.0, 1553.0, 1553.0, 1550.0, 1550.0, 1554.0, 1551.0, 1552.0, 1553.0, 1551.0, 1551.0, 1551.0, 1550.0, 1549.0, 1551.0, 1552.0, 1553.0, 1553.0, 1553.0, 1554.0, 1551.0, 1549.0, 1549.0, 1551.0, 1552.0, 1551.0, 1549.0, 1549.0, 1550.0, 1549.0, 1548.0, 1549.0, 1551.0, 1553.0, 1552.0, 1551.0, 1548.0, 1549.0, 1549.0, 1554.0, 1554.0, 1557.0, 1556.0, 1560.0, 1556.0, 1557.0, 1557.0, 1558.0, 1557.0, 1557.0, 1552.0, 1551.0, 1549.0, 1548.0, 1555.0, 1552.0, 1554.0, 1555.0, 1555.0, 1554.0, 1555.0, 1555.0, 1555.0, 1554.0, 1555.0, 1557.0, 1557.0, 1559.0, 1552.0, 1552.0, 1553.0, 1554.0, 1555.0, 1554.0, 1552.0, 1553.0, 1555.0, 1554.0, 1553.0, 1556.0, 1559.0, 1558.0, 1557.0, 1557.0, 1553.0, 1552.0]
    },
    "slices": {}
  }
}