{
  "AcquisitionMatrixPE": 64,
  "AcquisitionNumber": 1,
  "AcquisitionTime": "09:12:21.330000",
  "BandwidthPerPixelPhaseEncode": 33.967,
  "BaseResolution": 64,
  "CoilCombinationMethod": "Sum of Squares",
  "CoilString": "C:HEA;HEP",
  "ConversionSoftware": "dcm2niix",
  "ConversionSoftwareVersion": "v1.0.20220720",
  "DerivedVendorReportedEchoSpacing": 0.000460005,
  "DeviceSerialNumber": "35193",
  "DwellTime": 3.1e-06,
  "EchoTime": 0.03,
  "EffectiveEchoSpacing": 0.000460005,
  "FlipAngle": 90,
  "HeudiconvVersion": "1.1.6",
  "ImageOrientationPatientDICOM": [0.99956, 0, 0.0296662, 0, 1, 0],
  "ImageOrientationText": "Tra>Sag(1.7)",
  "ImageType": [
    "ORIGINAL",
    "PRIMARY",
    "M",
    "ND",
    "MOSAIC"
],
  "ImagingFrequency": 123.254,
  "InPlanePhaseEncodingDirectionDICOM": "COL",
  "InstitutionAddress": "Xinjiekouwai Street No 19,Beijing,Haidian District,CN,100875",
  "InstitutionName": "Beijing Normal Universtiy/577BC4/",
  "InstitutionalDepartmentName": "Department",
  "MRAcquisitionType": "2D",
  "MagneticFieldStrength": 3,
  "Manufacturer": "Siemens",
  "ManufacturersModelName": "TrioTim",
  "MatrixCoilMode": "SENSE",
  "Modality": "MR",
  "NonlinearGradientCorrection": false,
  "PartialFourier": 1,
  "PatientPosition": "HFS",
  "PercentPhaseFOV": 100,
  "PercentSampling": 100,
  "PhaseEncodingDirection": "j-",
  "PhaseEncodingSteps": 64,
  "PhaseResolution": 1,
  "PixelBandwidth": 2520,
  "ProcedureStepDescription": "BNU_cst_2011^Gong.GaoLang",
  "ProtocolName": "ge_func_3x3x4_164",
  "PulseSequenceDetails": "%SiemensSeq%\\ep2d_bold",
  "ReceiveCoilName": "HeadMatrix",
  "ReconMatrixPE": 64,
  "RepetitionTime": 2,
  "SAR": 0.12394,
  "ScanOptions": "FS",
  "ScanningSequence": "EP",
  "SequenceName": "*epfid2d1_64",
  "SequenceVariant": "SK",
  "SeriesDescription": "ge_func_3x3x4_164",
  "SeriesNumber": 4,
  "ShimSetting": [-4421, -19395, -9800, 1250, 0, -423, -37, -73],
  "SliceThickness": 4,
  "SliceTiming": [0, 1.035, 0.0625, 1.095, 0.1225, 1.1575, 0.1825, 1.2175, 0.245, 1.2775, 0.305, 1.34, 0.365, 1.4, 0.4275, 1.46, 0.4875, 1.5225, 0.5475, 1.5825, 0.61, 1.6425, 0.67, 1.705, 0.73, 1.765, 0.7925, 1.825, 0.8525, 1.8875, 0.9125, 1.9475, 0.975],
  "SoftwareVersions": "syngo MR B17",
  "SpacingBetweenSlices": 4.6,
  "StationName": "MRC35193",
  "TaskName": "CognitiveControl",
  "TotalReadoutTime": 0.0289803,
  "TxRefAmp": 337.717,
  "dcmmeta_affine": [
    [-3.123624563217163, 0.0, 0.13646471500396729, 87.65206909179688],
    [0.0, 3.125, 0.0, -82.03162384033203],
    [0.09270700812339783, 0.0, 4.597975254058838, -50.220977783203125],
    [0.0, 0.0, 0.0, 1.0]
],
  "dcmmeta_reorient_transform": [
    [0.0, -1.0, 0.0, 63.0],
    [1.0, 0.0, 0.0, 0.0],
    [0.0, 0.0, 1.0, 0.0],
    [0.0, 0.0, 0.0, 1.0]
],
  "dcmmeta_shape": [64, 64, 33, 164],
  "dcmmeta_slice_dim": 2,
  "dcmmeta_version": 0.6,
  "global": {
    "const": {
      "AcquisitionMatrix": [64, 0, 0, 64],
      "AngioFlag": "N",
      "BitsAllocated": 16,
      "BitsStored": 12,
      "Columns": 384,
      "EchoNumbers": 1,
      "EchoTime": 30.0,
      "EchoTrainLength": 1,
      "FlipAngle": 90.0,
      "HighBit": 11,
      "ImageOrientationPatient": [0.9995598601523, 0.0, 0.02966624297621, 0.0, 1.0, 0.0],
      "ImagePositionPatient": [-587.43199820655, -614.84337329865, -65.054098355307],
      "ImageType": [
        "ORIGINAL",
        "PRIMARY",
        "M",
        "ND",
        "MOSAIC"
],
      "ImagedNucleus": "1H",
      "ImagingFrequency": 123.253595,
      "InPlanePhaseEncodingDirection": "COL",
      "MRAcquisitionType": "2D",
      "MagneticFieldStrength": 3.0,
      "Manufacturer": "SIEMENS",
      "ManufacturerModelName": "TrioTim",
      "Modality": "MR",
      "NumberOfAverages": 1.0,
      "NumberOfPhaseEncodingSteps": 64,
      "PercentPhaseFieldOfView": 100.0,
      "PercentSampling": 100.0,
      "PerformedProcedureStepStartTime": "085637.828000",
      "PhotometricInterpretation": "MONOCHROME2",
      "PixelBandwidth": 2520.0,
      "PixelRepresentation": 0,
      "PixelSpacing": [3.125, 3.125],
      "ProtocolName": "ge_func_3x3x4_164",
      "RepetitionTime": 2000.0,
      "Rows": 384,
      "SAR": 0.12393960512653,
      "SamplesPerPixel": 1,
      "ScanOptions": "FS",
      "ScanningSequence": "EP",
      "SequenceName": "*epfid2d1_64",
      "SequenceVariant": "SK",
      "SeriesDescription": "ge_func_3x3x4_164",
      "SeriesNumber": 4,
      "SeriesTime": "091321.734000",
      "SliceLocation": -47.598565063567,
      "SliceThickness": 4.0,
      "SmallestImagePixelValue": 0,
      "SoftwareVersions": "syngo MR B17",
      "SpacingBetweenSlices": 4.6000000169226,
      "SpecificCharacterSet": "ISO_IR 100",
      "StudyID": "1",
      "StudyTime": "085636.781000",
      "TransmitCoilName": "Body",
      "VariableFlipAngleFlag": "N",
      "WindowCenterWidthExplanation": "Algo1",
      "dBdt": 0.0},
    "slices": {}
  },
  "time": {
    "samples": {
      "AcquisitionNumber": [1, 2, 3, 4, 5, 6, 7, 8, 9, 10, 11, 12, 13, 14, 15, 16, 17, 18, 19, 20, 21, 22, 23, 24, 25, 26, 27, 28, 29, 30, 31, 32, 33, 34, 35, 36, 37, 38, 39, 40, 41, 42, 43, 44, 45, 46, 47, 48, 49, 50, 51, 52, 53, 54, 55, 56, 57, 58, 59, 60, 61, 62, 63, 64, 65, 66, 67, 68, 69, 70, 71, 72, 73, 74, 75, 76, 77, 78, 79, 80, 81, 82, 83, 84, 85, 86, 87, 88, 89, 90, 91, 92, 93, 94, 95, 96, 97, 98, 99, 100, 101, 102, 103, 104, 105, 106, 107, 108, 109, 110, 111, 112, 113, 114, 115, 116, 117, 118, 119, 120, 121, 122, 123, 124, 125, 126, 127, 128, 129, 130, 131, 132, 133, 134, 135, 136, 137, 138, 139, 140, 141, 142, 143, 144, 145, 146, 147, 148, 149, 150, 151, 152, 153, 154, 155, 156, 157, 158, 159, 160, 161, 162, 163, 164],
      "AcquisitionTime": ["091221.330000", "091223.340000", "091225.347500", "091227.355000", "091229.362500", "091231.372500", "091233.380000", "091235.387500", "091237.395000", "091239.402500", "091241.412500", "091243.420000", "091245.427500", "091247.435000", "091249.442500", "091251.452500", "091253.460000", "091255.467500", "091257.475000", "091259.482500", "091301.492500", "091303.500000", "091305.507500", "091307.515000", "091309.525000", "091311.532500", "091313.540000", "091315.547500", "091317.555000", "091319.565000", "091321.572500", "091323.580000", "091325.587500", "091327.595000", "091329.605000", "091331.612500", "091333.620000", "091335.627500", "091337.637500", "091339.645000", "091341.652500", "091343.660000", "091345.667500", "091347.677500", "091349.685000", "091351.692500", "091353.700000", "091355.707500", "091357.717500", "091359.725000", "091401.732500", "091403.740000", "091405.750000", "091407.757500", "091409.765000", "091411.772500", "091413.780000", "091415.790000", "091417.797500", "091419.805000", "091421.812500", "091423.820000", "091425.830000", "091427.837500", "091429.845000", "091431.852500", "091433.860000", "091435.870000", "091437.877500", "091439.885000", "091441.892500", "091443.902500", "091445.910000", "091447.917500", "091449.925000", "091451.932500", "091453.942500", "091455.950000", "091457.957500", "091459.965000", "091501.972500", "091503.982500", "091505.990000", "091507.997500", "091510.005000", "091512.015000", "091514.022500", "091516.030000", "091518.037500", "091520.045000", "091522.055000", "091524.062500", "091526.070000", "091528.077500", "091530.085000", "091532.095000", "091534.102500", "091536.110000", "091538.117500", "091540.127500", "091542.135000", "091544.142500", "091546.150000", "091548.157500", "091550.167500", "091552.175000", "091554.182500", "091556.190000", "091558.197500", "091600.207500", "091602.215000", "091604.222500", "091606.230000", "091608.237500", "091610.247500", "091612.255000", "091614.262500", "091616.270000", "091618.280000", "091620.287500", "091622.295000", "091624.302500", "091626.310000", "091628.320000", "091630.327500", "091632.335000", "091634.342500", "091636.350000", "091638.360000", "091640.367500", "091642.375000", "091644.382500", "091646.392500", "091648.400000", "091650.407500", "091652.415000", "091654.422500", "091656.432500", "091658.440000", "091700.447500", "091702.455000", "091704.462500", "091706.472500", "091708.480000", "091710.487500", "091712.495000", "091714.505000", "091716.512500", "091718.520000", "091720.527500", "091722.535000", "091724.545000", "091726.552500", "091728.560000", "091730.567500", "091732.575000", "091734.585000", "091736.592500", "091738.600000", "091740.607500", "091742.617500", "091744.625000", "091746.632500", "091748.640000"],
      "ContentTime": ["091321.734000", "091321.734000", "091321.734000", "091321.734000", "091321.734000", "091321.750000", "091321.750000", "091321.750000", "091321.750000", "091321.750000", "091321.750000", "091321.765000", "091321.765000", "091321.765000", "091321.765000", "091321.765000", "091321.765000", "091321.765000", "091321.781000", "091321.781000", "091321.781000", "091321.781000", "091321.781000", "091321.796000", "091321.796000", "091321.796000", "091321.796000", "091321.796000", "091321.796000", "091401.718000", "091401.734000", "091401.734000", "091401.734000", "091401.734000", "091401.734000", "091401.734000", "091401.734000", "091401.734000", "091401.750000", "091401.750000", "091401.750000", "091401.750000", "091401.750000", "091401.750000", "091401.750000", "091401.750000", "091401.765000", "091401.765000", "091401.765000", "091441.718000", "091441.734000", "091441.734000", "091441.734000", "091441.734000", "091441.750000", "091441.750000", "091441.750000", "091441.750000", "091441.750000", "091441.750000", "091441.750000", "091441.750000", "091441.765000", "091441.765000", "091441.765000", "091441.765000", "091441.765000", "091441.765000", "091441.765000", "091521.718000", "091521.734000", "091521.734000", "091521.734000", "091521.734000", "091521.734000", "091521.734000", "091521.750000", "091521.750000", "091521.750000", "091521.750000", "091521.750000", "091521.750000", "091521.750000", "091521.750000", "091521.765000", "091521.765000", "091521.765000", "091521.765000", "091521.765000", "091541.718000", "091541.734000", "091541.734000", "091541.734000", "091541.734000", "091541.734000", "091541.750000", "091541.750000", "091541.750000", "091541.750000", "091621.718000", "091621.734000", "091621.734000", "091621.734000", "091621.734000", "091621.734000", "091621.734000", "091621.750000", "091621.750000", "091621.750000", "091621.750000", "091621.750000", "091621.750000", "091621.750000", "091621.765000", "091621.765000", "091621.765000", "091621.765000", "091621.765000", "091621.765000", "091701.718000", "091701.734000", "091701.734000", "091701.734000", "091701.734000", "091701.734000", "091701.734000", "091701.734000", "091701.734000", "091701.750000", "091701.750000", "091701.750000", "091701.750000", "091701.750000", "091701.750000", "091701.750000", "091701.750000", "091701.765000", "091701.765000", "091701.765000", "091741.718000", "091741.734000", "091741.734000", "091741.734000", "091741.734000", "091741.734000", "091741.734000", "091741.734000", "091741.734000", "091741.734000", "091741.750000", "091741.750000", "091741.750000", "091741.750000", "091741.750000", "091741.750000", "091741.750000", "091741.750000", "091741.765000", "091741.765000", "091750.156000", "091750.171000", "091750.171000", "091750.171000", "091750.171000"],
      "InstanceCreationTime": ["091321.734000", "091321.734000", "091321.734000", "091321.734000", "091321.734000", "091321.750000", "091321.750000", "091321.750000", "091321.750000", "091321.750000", "091321.750000", "091321.765000", "091321.765000", "091321.765000", "091321.765000", "091321.765000", "091321.765000", "091321.765000", "091321.781000", "091321.781000", "091321.781000", "091321.781000", "091321.781000", "091321.796000", "091321.796000", "091321.796000", "091321.796000", "091321.796000", "091321.796000", "091401.718000", "091401.734000", "091401.734000", "091401.734000", "091401.734000", "091401.734000", "091401.734000", "091401.734000", "091401.734000", "091401.750000", "091401.750000", "091401.750000", "091401.750000", "091401.750000", "091401.750000", "091401.750000", "091401.750000", "091401.765000", "091401.765000", "091401.765000", "091441.718000", "091441.734000", "091441.734000", "091441.734000", "091441.734000", "091441.750000", "091441.750000", "091441.750000", "091441.750000", "091441.750000", "091441.750000", "091441.750000", "091441.750000", "091441.765000", "091441.765000", "091441.765000", "091441.765000", "091441.765000", "091441.765000", "091441.765000", "091521.718000", "091521.734000", "091521.734000", "091521.734000", "091521.734000", "091521.734000", "091521.734000", "091521.750000", "091521.750000", "091521.750000", "091521.750000", "091521.750000", "091521.750000", "091521.750000", "091521.750000", "091521.765000", "091521.765000", "091521.765000", "091521.765000", "091521.765000", "091541.718000", "091541.734000", "091541.734000", "091541.734000", "091541.734000", "091541.734000", "091541.750000", "091541.750000", "091541.750000", "091541.750000", "091621.718000", "091621.734000", "091621.734000", "091621.734000", "091621.734000", "091621.734000", "091621.734000", "091621.750000", "091621.750000", "091621.750000", "091621.750000", "091621.750000", "091621.750000", "091621.750000", "091621.765000", "091621.765000", "091621.765000", "091621.765000", "091621.765000", "091621.765000", "091701.718000", "091701.734000", "091701.734000", "091701.734000", "091701.734000", "091701.734000", "091701.734000", "091701.734000", "091701.734000", "091701.750000", "091701.750000", "091701.750000", "091701.750000", "091701.750000", "091701.750000", "091701.750000", "091701.750000", "091701.765000", "091701.765000", "091701.765000", "091741.718000", "091741.734000", "091741.734000", "091741.734000", "091741.734000", "091741.734000", "091741.734000", "091741.734000", "091741.734000", "091741.734000", "091741.750000", "091741.750000", "091741.750000", "091741.750000", "091741.750000", "091741.750000", "091741.750000", "091741.750000", "091741.765000", "091741.765000", "091750.156000", "091750.171000", "091750.171000", "091750.171000", "091750.171000"],
      "InstanceNumber": [1, 2, 3, 4, 5, 6, 7, 8, 9, 10, 11, 12, 13, 14, 15, 16, 17, 18, 19, 20, 21, 22, 23, 24, 25, 26, 27, 28, 29, 30, 31, 32, 33, 34, 35, 36, 37, 38, 39, 40, 41, 42, 43, 44, 45, 46, 47, 48, 49, 50, 51, 52, 53, 54, 55, 56, 57, 58, 59, 60, 61, 62, 63, 64, 65, 66, 67, 68, 69, 70, 71, 72, 73, 74, 75, 76, 77, 78, 79, 80, 81, 82, 83, 84, 85, 86, 87, 88, 89, 90, 91, 92, 93, 94, 95, 96, 97, 98, 99, 100, 101, 102, 103, 104, 105, 106, 107, 108, 109, 110, 111, 112, 113, 114, 115, 116, 117, 118, 119, 120, 121, 122, 123, 124, 125, 126, 127, 128, 129, 130, 131, 132, 133, 134, 135, 136, 137, 138, 139, 140, 141, 142, 143, 144, 145, 146, 147, 148, 149, 150, 151, 152, 153, 154, 155, 156, 157, 158, 159, 160, 161, 162, 163, 164],
      "LargestImagePixelValue": [2232, 2156, 2139, 2132, 2145, 2140, 2120, 2145, 2140, 2116, 2118, 2124, 2139, 2137, 2117, 2142, 2148, 2144, 2153, 2152, 2125, 2129, 2135, 2109, 2124, 2136, 2132, 2112, 2130, 2132, 2117, 2152, 2133, 2115, 2106, 2126, 2120, 2105, 2119, 2102, 2130, 2122, 2121, 2138, 2126, 2097, 2122, 2118, 2123, 2131, 2152, 2132, 2148, 2155, 2125, 2122, 2131, 2136, 2140, 2136, 2118, 2138, 2125, 2131, 2144, 2133, 2127, 2117, 2114, 2105, 2136, 2131, 2140, 2124, 2109, 2122, 2139, 2123, 2124, 2130, 2129, 2136, 2119, 2124, 2131, 2120, 2151, 2135, 2145, 2144, 2127, 2125, 2135, 2138, 2132, 2169, 2159, 2180, 2127, 2145, 2166, 2158, 2142, 2157, 2139, 2153, 2129, 2125, 2139, 2137, 2130, 2124, 2114, 2135, 2140, 2142, 2145, 2127, 2141, 2142, 2126, 2134, 2136, 2135, 2155, 2138, 2134, 2145, 2139, 2142, 2149, 2149, 2146, 2155, 2120, 2131, 2152, 2125, 2128, 2129, 2120, 2136, 2118, 2125, 2139, 2115, 2138, 2112, 2142, 2132, 2130, 2145, 2139, 2144, 2130, 2117, 2120, 2155, 2144, 2138, 2144, 2123, 2136, 2128],
      "WindowCenter": [772.0, 769.0, 768.0, 767.0, 767.0, 767.0, 766.0, 766.0, 766.0, 767.0, 767.0, 767.0, 767.0, 768.0, 768.0, 768.0, 768.0, 768.0, 768.0, 768.0, 767.0, 767.0, 769.0, 769.0, 769.0, 768.0, 768.0, 767.0, 768.0, 768.0, 768.0, 768.0, 768.0, 768.0, 767.0, 768.0, 769.0, 769.0, 769.0, 768.0, 768.0, 768.0, 768.0, 768.0, 768.0, 767.0, 767.0, 768.0, 769.0, 769.0, 768.0, 769.0, 769.0, 769.0, 768.0, 768.0, 768.0, 769.0, 769.0, 769.0, 769.0, 769.0, 769.0, 769.0, 768.0, 768.0, 768.0, 768.0, 768.0, 768.0, 769.0, 769.0, 769.0, 769.0, 768.0, 768.0, 768.0, 768.0, 768.0, 768.0, 768.0, 768.0, 768.0, 768.0, 768.0, 768.0, 769.0, 769.0, 768.0, 769.0, 769.0, 768.0, 769.0, 769.0, 769.0, 769.0, 769.0, 770.0, 769.0, 769.0, 770.0, 770.0, 770.0, 770.0, 770.0, 769.0, 769.0, 769.0, 769.0, 769.0, 770.0, 769.0, 769.0, 769.0, 770.0, 770.0, 770.0, 770.0, 770.0, 770.0, 770.0, 770.0, 770.0, 770.0, 770.0, 770.0, 770.0, 770.0, 771.0, 771.0, 769.0, 769.0, 769.0, 770.0, 770.0, 769.0, 769.0, 770.0, 770.0, 770.0, 770.0, 769.0, 770.0, 770.0, 770.0, 772.0, 772.0, 770.0, 769.0, 769.0, 769.0, 770.0, 770.0, 770.0, 769.0, 770.0, 769.0, 770.0, 770.0, 770.0, 770.0, 771.0, 771.0, 771.0],
      "WindowWidth": [1714.0, 1703.0, 1698.0, 1696.0, 1697.0, 1696.0, 1694.0, 1694.0, 1694.0, 1698.0, 1697.0, 1697.0, 1697.0, 1699.0, 1700.0, 1700.0, 1700.0, 1698.0, 1699.0, 1699.0, 1695.0, 1697.0, 1701.0, 1704.0, 1702.0, 1700.0, 1699.0, 1697.0, 1699.0, 1700.0, 1699.0, 1700.0, 1700.0, 1700.0, 1697.0, 1701.0, 1703.0, 1703.0, 1702.0, 1700.0, 1701.0, 1701.0, 1701.0, 1700.0, 1700.0, 1697.0, 1696.0, 1699.0, 1701.0, 1701.0, 1700.0, 1702.0, 1704.0, 1703.0, 1700.0, 1700.0, 1700.0, 1701.0, 1701.0, 1702.0, 1701.0, 1701.0, 1701.0, 1701.0, 1700.0, 1700.0, 1700.0, 1698.0, 1699.0, 1700.0, 1701.0, 1702.0, 1702.0, 1702.0, 1699.0, 1697.0, 1698.0, 1699.0, 1699.0, 1700.0, 1699.0, 1700.0, 1700.0, 1698.0, 1699.0, 1699.0, 1701.0, 1701.0, 1700.0, 1702.0, 1701.0, 1700.0, 1702.0, 1704.0, 1703.0, 1702.0, 1703.0, 1704.0, 1701.0, 1702.0, 1704.0, 1705.0, 1705.0, 1705.0, 1704.0, 1703.0, 1703.0, 1703.0, 1702.0, 1703.0, 1704.0, 1703.0, 1703.0, 1703.0, 1705.0, 1704.0, 1704.0, 1705.0, 1706.0, 1705.0, 1705.0, 1706.0, 1705.0, 1704.0, 1705.0, 1705.0, 1705.0, 1704.0, 1707.0, 1707.0, 1703.0, 1702.0, 1703.0, 1706.0, 1705.0, 1703.0, 1702.0, 1704.0, 1706.0, 1705.0, 1704.0, 1703.0, 1703.0, 1704.0, 1706.0, 1710.0, 1710.0, 1705.0, 1702.0, 1701.0, 1702.0, 1705.0, 1704.0, 1704.0, 1703.0, 1703.0, 1703.0, 1704.0, 1705.0, 1704.0, 1706.0, 1706.0, 1707.0, 1706.0]
    },
    "slices": {}
  }
}