{
  "AcquisitionMatrixPE": 64,
  "AcquisitionNumber": 1,
  "AcquisitionTime": "08:59:13.952500",
  "BandwidthPerPixelPhaseEncode": 33.967,
  "BaseResolution": 64,
  "CoilCombinationMethod": "Sum of Squares",
  "CoilString": "C:HEA;HEP",
  "ConversionSoftware": "dcm2niix",
  "ConversionSoftwareVersion": "v1.0.20220720",
  "DerivedVendorReportedEchoSpacing": 0.000460005,
  "DeviceSerialNumber": "35193",
  "DwellTime": 3.1e-06,
  "EchoTime": 0.03,
  "EffectiveEchoSpacing": 0.000460005,
  "FlipAngle": 90,
  "HeudiconvVersion": "1.1.6",
  "ImageOrientationPatientDICOM": [0.99956, 0, 0.0296662, 0, 1, 0],
  "ImageOrientationText": "Tra>Sag(1.7)",
  "ImageType": [
    "ORIGINAL",
    "PRIMARY",
    "M",
    "ND",
    "MOSAIC"
],
  "ImagingFrequency": 123.254,
  "InPlanePhaseEncodingDirectionDICOM": "COL",
  "InstitutionAddress": "Xinjiekouwai Street No 19,Beijing,Haidian District,CN,100875",
  "InstitutionName": "Beijing Normal Universtiy/577BC4/",
  "InstitutionalDepartmentName": "Department",
  "MRAcquisitionType": "2D",
  "MagneticFieldStrength": 3,
  "Manufacturer": "Siemens",
  "ManufacturersModelName": "TrioTim",
  "MatrixCoilMode": "SENSE",
  "Modality": "MR",
  "NonlinearGradientCorrection": false,
  "PartialFourier": 1,
  "PatientPosition": "HFS",
  "PercentPhaseFOV": 100,
  "PercentSampling": 100,
  "PhaseEncodingDirection": "j-",
  "PhaseEncodingSteps": 64,
  "PhaseResolution": 1,
  "PixelBandwidth": 2520,
  "ProcedureStepDescription": "BNU_cst_2011^Gong.GaoLang",
  "ProtocolName": "ge_func_3x3x4_164",
  "PulseSequenceDetails": "%SiemensSeq%\\ep2d_bold",
  "ReceiveCoilName": "HeadMatrix",
  "ReconMatrixPE": 64,
  "RepetitionTime": 2,
  "SAR": 0.12394,
  "ScanOptions": "FS",
  "ScanningSequence": "EP",
  "SequenceName": "*epfid2d1_64",
  "SequenceVariant": "SK",
  "SeriesDescription": "ge_func_3x3x4_164",
  "SeriesNumber": 2,
  "ShimSetting": [-4421, -19395, -9800, 1250, 0, -423, -37, -73],
  "SliceThickness": 4,
  "SliceTiming": [0, 1.0325, 0.06, 1.095, 0.12, 1.155, 0.1825, 1.215, 0.2425, 1.2775, 0.3025, 1.3375, 0.365, 1.3975, 0.425, 1.46, 0.485, 1.52, 0.5475, 1.58, 0.6075, 1.6425, 0.6675, 1.7025, 0.73, 1.7625, 0.79, 1.825, 0.85, 1.885, 0.9125, 1.945, 0.9725],
  "SoftwareVersions": "syngo MR B17",
  "SpacingBetweenSlices": 4.6,
  "StationName": "MRC35193",
  "TaskName": "LanguageControl",
  "TotalReadoutTime": 0.0289803,
  "TxRefAmp": 337.717,
  "dcmmeta_affine": [
    [-3.123624563217163, 0.0, 0.13646471500396729, 87.65206909179688],
    [0.0, 3.125, 0.0, -82.03162384033203],
    [0.09270700812339783, 0.0, 4.597975254058838, -50.220977783203125],
    [0.0, 0.0, 0.0, 1.0]
],
  "dcmmeta_reorient_transform": [
    [0.0, -1.0, 0.0, 63.0],
    [1.0, 0.0, 0.0, 0.0],
    [0.0, 0.0, 1.0, 0.0],
    [0.0, 0.0, 0.0, 1.0]
],
  "dcmmeta_shape": [64, 64, 33, 164],
  "dcmmeta_slice_dim": 2,
  "dcmmeta_version": 0.6,
  "global": {
    "const": {
      "AcquisitionMatrix": [64, 0, 0, 64],
      "AngioFlag": "N",
      "BitsAllocated": 16,
      "BitsStored": 12,
      "Columns": 384,
      "EchoNumbers": 1,
      "EchoTime": 30.0,
      "EchoTrainLength": 1,
      "FlipAngle": 90.0,
      "HighBit": 11,
      "ImageOrientationPatient": [0.9995598601523, 0.0, 0.02966624297621, 0.0, 1.0, 0.0],
      "ImagePositionPatient": [-587.43199820655, -614.84337329865, -65.054098355307],
      "ImageType": [
        "ORIGINAL",
        "PRIMARY",
        "M",
        "ND",
        "MOSAIC"
],
      "ImagedNucleus": "1H",
      "ImagingFrequency": 123.253582,
      "InPlanePhaseEncodingDirection": "COL",
      "MRAcquisitionType": "2D",
      "MagneticFieldStrength": 3.0,
      "Manufacturer": "SIEMENS",
      "ManufacturerModelName": "TrioTim",
      "Modality": "MR",
      "NumberOfAverages": 1.0,
      "NumberOfPhaseEncodingSteps": 64,
      "PercentPhaseFieldOfView": 100.0,
      "PercentSampling": 100.0,
      "PerformedProcedureStepStartTime": "085637.828000",
      "PhotometricInterpretation": "MONOCHROME2",
      "PixelBandwidth": 2520.0,
      "PixelRepresentation": 0,
      "PixelSpacing": [3.125, 3.125],
      "ProtocolName": "ge_func_3x3x4_164",
      "RepetitionTime": 2000.0,
      "Rows": 384,
      "SAR": 0.12393960512653,
      "SamplesPerPixel": 1,
      "ScanOptions": "FS",
      "ScanningSequence": "EP",
      "SequenceName": "*epfid2d1_64",
      "SequenceVariant": "SK",
      "SeriesDescription": "ge_func_3x3x4_164",
      "SeriesNumber": 2,
      "SeriesTime": "090001.765000",
      "SliceLocation": -47.598565063567,
      "SliceThickness": 4.0,
      "SmallestImagePixelValue": 0,
      "SoftwareVersions": "syngo MR B17",
      "SpacingBetweenSlices": 4.6000000169226,
      "SpecificCharacterSet": "ISO_IR 100",
      "StudyID": "1",
      "StudyTime": "085636.781000",
      "TransmitCoilName": "Body",
      "VariableFlipAngleFlag": "N",
      "WindowCenterWidthExplanation": "Algo1",
      "dBdt": 0.0},
    "slices": {}
  },
  "time": {
    "samples": {
      "AcquisitionNumber": [1, 2, 3, 4, 5, 6, 7, 8, 9, 10, 11, 12, 13, 14, 15, 16, 17, 18, 19, 20, 21, 22, 23, 24, 25, 26, 27, 28, 29, 30, 31, 32, 33, 34, 35, 36, 37, 38, 39, 40, 41, 42, 43, 44, 45, 46, 47, 48, 49, 50, 51, 52, 53, 54, 55, 56, 57, 58, 59, 60, 61, 62, 63, 64, 65, 66, 67, 68, 69, 70, 71, 72, 73, 74, 75, 76, 77, 78, 79, 80, 81, 82, 83, 84, 85, 86, 87, 88, 89, 90, 91, 92, 93, 94, 95, 96, 97, 98, 99, 100, 101, 102, 103, 104, 105, 106, 107, 108, 109, 110, 111, 112, 113, 114, 115, 116, 117, 118, 119, 120, 121, 122, 123, 124, 125, 126, 127, 128, 129, 130, 131, 132, 133, 134, 135, 136, 137, 138, 139, 140, 141, 142, 143, 144, 145, 146, 147, 148, 149, 150, 151, 152, 153, 154, 155, 156, 157, 158, 159, 160, 161, 162, 163, 164],
      "AcquisitionTime": ["085913.952500", "085915.960000", "085917.967500", "085919.975000", "085921.982500", "085923.992500", "085926.000000", "085928.007500", "085930.015000", "085932.022500", "085934.032500", "085936.040000", "085938.047500", "085940.055000", "085942.065000", "085944.072500", "085946.080000", "085948.087500", "085950.095000", "085952.105000", "085954.112500", "085956.120000", "085958.127500", "090000.135000", "090002.145000", "090004.152500", "090006.160000", "090008.167500", "090010.177500", "090012.185000", "090014.192500", "090016.200000", "090018.207500", "090020.217500", "090022.225000", "090024.232500", "090026.240000", "090028.247500", "090030.257500", "090032.265000", "090034.272500", "090036.280000", "090038.287500", "090040.297500", "090042.305000", "090044.312500", "090046.320000", "090048.330000", "090050.337500", "090052.345000", "090054.352500", "090056.360000", "090058.370000", "090100.377500", "090102.385000", "090104.392500", "090106.400000", "090108.410000", "090110.417500", "090112.425000", "090114.432500", "090116.442500", "090118.450000", "090120.457500", "090122.465000", "090124.472500", "090126.482500", "090128.490000", "090130.497500", "090132.505000", "090134.512500", "090136.522500", "090138.530000", "090140.537500", "090142.545000", "090144.555000", "090146.562500", "090148.570000", "090150.577500", "090152.585000", "090154.595000", "090156.602500", "090158.610000", "090200.617500", "090202.625000", "090204.635000", "090206.642500", "090208.650000", "090210.657500", "090212.665000", "090214.675000", "090216.682500", "090218.690000", "090220.697500", "090222.707500", "090224.715000", "090226.722500", "090228.730000", "090230.737500", "090232.747500", "090234.755000", "090236.762500", "090238.770000", "090240.777500", "090242.787500", "090244.795000", "090246.802500", "090248.810000", "090250.820000", "090252.827500", "090254.835000", "090256.842500", "090258.850000", "090300.860000", "090302.867500", "090304.875000", "090306.882500", "090308.890000", "090310.900000", "090312.907500", "090314.915000", "090316.922500", "090318.932500", "090320.940000", "090322.947500", "090324.955000", "090326.962500", "090328.972500", "090330.980000", "090332.987500", "090334.995000", "090337.002500", "090339.012500", "090341.020000", "090343.027500", "090345.035000", "090347.045000", "090349.052500", "090351.060000", "090353.067500", "090355.075000", "090357.085000", "090359.092500", "090401.100000", "090403.107500", "090405.115000", "090407.125000", "090409.132500", "090411.140000", "090413.147500", "090415.155000", "090417.165000", "090419.172500", "090421.180000", "090423.187500", "090425.197500", "090427.205000", "090429.212500", "090431.220000", "090433.227500", "090435.237500", "090437.245000", "090439.252500", "090441.260000"],
      "ContentTime": ["090001.765000", "090001.781000", "090001.781000", "090001.781000", "090001.781000", "090001.781000", "090001.781000", "090001.796000", "090001.796000", "090001.796000", "090001.796000", "090001.796000", "090001.796000", "090001.812000", "090001.812000", "090001.812000", "090001.812000", "090001.812000", "090001.812000", "090001.828000", "090001.828000", "090001.828000", "090001.828000", "090041.750000", "090041.765000", "090041.765000", "090041.765000", "090041.765000", "090041.765000", "090041.765000", "090041.765000", "090041.765000", "090041.781000", "090041.781000", "090041.781000", "090041.781000", "090041.781000", "090041.781000", "090041.796000", "090041.796000", "090041.796000", "090041.796000", "090041.796000", "090121.750000", "090121.765000", "090121.765000", "090121.765000", "090121.765000", "090121.765000", "090121.765000", "090121.765000", "090121.765000", "090121.765000", "090121.781000", "090121.781000", "090121.781000", "090121.781000", "090121.796000", "090121.796000", "090121.796000", "090121.796000", "090121.796000", "090121.796000", "090201.750000", "090201.765000", "090201.765000", "090201.765000", "090201.765000", "090201.765000", "090201.781000", "090201.781000", "090201.781000", "090201.781000", "090201.781000", "090201.796000", "090201.796000", "090201.796000", "090201.796000", "090201.812000", "090201.812000", "090201.812000", "090201.812000", "090201.812000", "090241.750000", "090241.765000", "090241.765000", "090241.765000", "090241.765000", "090241.765000", "090241.765000", "090241.781000", "090241.781000", "090241.781000", "090241.781000", "090241.781000", "090241.781000", "090241.781000", "090241.781000", "090241.796000", "090241.796000", "090241.796000", "090241.796000", "090241.796000", "090321.750000", "090321.750000", "090321.765000", "090321.765000", "090321.765000", "090321.765000", "090321.765000", "090321.765000", "090321.781000", "090321.781000", "090321.781000", "090321.781000", "090321.781000", "090321.781000", "090321.781000", "090321.781000", "090321.796000", "090321.796000", "090321.796000", "090321.796000", "090401.750000", "090401.765000", "090401.765000", "090401.765000", "090401.765000", "090401.765000", "090401.765000", "090401.765000", "090401.765000", "090401.781000", "090401.781000", "090401.781000", "090401.781000", "090401.781000", "090401.781000", "090401.781000", "090401.781000", "090401.796000", "090401.796000", "090401.796000", "090441.750000", "090441.765000", "090441.765000", "090441.765000", "090441.765000", "090441.765000", "090441.765000", "090441.765000", "090441.765000", "090441.781000", "090441.781000", "090441.781000", "090441.781000", "090441.781000", "090441.781000", "090441.781000", "090441.781000", "090441.781000", "090441.796000", "090441.796000", "090443.578000"],
      "InstanceCreationTime": ["090001.765000", "090001.781000", "090001.781000", "090001.781000", "090001.781000", "090001.781000", "090001.781000", "090001.796000", "090001.796000", "090001.796000", "090001.796000", "090001.796000", "090001.796000", "090001.812000", "090001.812000", "090001.812000", "090001.812000", "090001.812000", "090001.812000", "090001.828000", "090001.828000", "090001.828000", "090001.828000", "090041.750000", "090041.765000", "090041.765000", "090041.765000", "090041.765000", "090041.765000", "090041.765000", "090041.765000", "090041.765000", "090041.781000", "090041.781000", "090041.781000", "090041.781000", "090041.781000", "090041.781000", "090041.796000", "090041.796000", "090041.796000", "090041.796000", "090041.796000", "090121.750000", "090121.765000", "090121.765000", "090121.765000", "090121.765000", "090121.765000", "090121.765000", "090121.765000", "090121.765000", "090121.765000", "090121.781000", "090121.781000", "090121.781000", "090121.781000", "090121.796000", "090121.796000", "090121.796000", "090121.796000", "090121.796000", "090121.796000", "090201.750000", "090201.765000", "090201.765000", "090201.765000", "090201.765000", "090201.765000", "090201.781000", "090201.781000", "090201.781000", "090201.781000", "090201.781000", "090201.796000", "090201.796000", "090201.796000", "090201.796000", "090201.812000", "090201.812000", "090201.812000", "090201.812000", "090201.812000", "090241.750000", "090241.765000", "090241.765000", "090241.765000", "090241.765000", "090241.765000", "090241.765000", "090241.781000", "090241.781000", "090241.781000", "090241.781000", "090241.781000", "090241.781000", "090241.781000", "090241.781000", "090241.796000", "090241.796000", "090241.796000", "090241.796000", "090241.796000", "090321.750000", "090321.750000", "090321.765000", "090321.765000", "090321.765000", "090321.765000", "090321.765000", "090321.765000", "090321.781000", "090321.781000", "090321.781000", "090321.781000", "090321.781000", "090321.781000", "090321.781000", "090321.781000", "090321.796000", "090321.796000", "090321.796000", "090321.796000", "090401.750000", "090401.765000", "090401.765000", "090401.765000", "090401.765000", "090401.765000", "090401.765000", "090401.765000", "090401.765000", "090401.781000", "090401.781000", "090401.781000", "090401.781000", "090401.781000", "090401.781000", "090401.781000", "090401.781000", "090401.796000", "090401.796000", "090401.796000", "090441.750000", "090441.765000", "090441.765000", "090441.765000", "090441.765000", "090441.765000", "090441.765000", "090441.765000", "090441.765000", "090441.781000", "090441.781000", "090441.781000", "090441.781000", "090441.781000", "090441.781000", "090441.781000", "090441.781000", "090441.781000", "090441.796000", "090441.796000", "090443.578000"],
      "InstanceNumber": [1, 2, 3, 4, 5, 6, 7, 8, 9, 10, 11, 12, 13, 14, 15, 16, 17, 18, 19, 20, 21, 22, 23, 24, 25, 26, 27, 28, 29, 30, 31, 32, 33, 34, 35, 36, 37, 38, 39, 40, 41, 42, 43, 44, 45, 46, 47, 48, 49, 50, 51, 52, 53, 54, 55, 56, 57, 58, 59, 60, 61, 62, 63, 64, 65, 66, 67, 68, 69, 70, 71, 72, 73, 74, 75, 76, 77, 78, 79, 80, 81, 82, 83, 84, 85, 86, 87, 88, 89, 90, 91, 92, 93, 94, 95, 96, 97, 98, 99, 100, 101, 102, 103, 104, 105, 106, 107, 108, 109, 110, 111, 112, 113, 114, 115, 116, 117, 118, 119, 120, 121, 122, 123, 124, 125, 126, 127, 128, 129, 130, 131, 132, 133, 134, 135, 136, 137, 138, 139, 140, 141, 142, 143, 144, 145, 146, 147, 148, 149, 150, 151, 152, 153, 154, 155, 156, 157, 158, 159, 160, 161, 162, 163, 164],
      "LargestImagePixelValue": [2158, 2069, 2000, 1980, 1958, 2101, 1995, 2132, 1956, 2007, 2060, 2034, 2059, 2053, 2120, 2059, 2104, 2039, 2043, 2087, 2082, 2078, 2113, 2140, 2127, 2096, 2118, 2110, 2110, 2130, 2138, 2117, 2123, 2126, 2135, 2134, 2146, 2136, 2141, 2121, 2139, 2137, 2118, 2118, 2116, 2139, 2139, 2150, 2099, 2114, 2148, 2130, 2133, 2157, 2133, 2119, 2102, 2114, 2122, 2123, 2103, 2087, 2108, 2107, 2105, 2113, 2113, 2105, 2119, 2113, 2092, 2124, 2137, 2115, 2118, 2109, 2123, 2122, 2116, 2117, 2099, 2117, 2093, 2121, 2125, 2118, 2135, 2124, 2109, 2141, 2128, 2142, 2159, 2155, 2153, 2141, 2135, 2134, 2143, 2164, 2164, 2160, 2149, 2141, 2173, 2155, 2161, 2165, 2159, 2172, 2152, 2159, 2179, 2169, 2151, 2156, 2165, 2155, 2142, 2177, 2161, 2152, 2154, 2150, 2169, 2147, 2135, 2137, 2152, 2189, 2164, 2148, 2147, 2129, 2122, 2159, 2164, 2195, 2167, 2163, 2173, 2179, 2181, 2183, 2167, 2167, 2149, 2152, 2157, 2150, 2174, 2177, 2127, 2133, 2122, 2137, 2141, 2152, 2146, 2106, 2119, 2103, 2123, 2134],
      "WindowCenter": [772.0, 769.0, 769.0, 768.0, 767.0, 767.0, 767.0, 767.0, 766.0, 767.0, 766.0, 767.0, 768.0, 768.0, 768.0, 767.0, 767.0, 766.0, 767.0, 768.0, 768.0, 769.0, 770.0, 770.0, 769.0, 768.0, 767.0, 767.0, 768.0, 769.0, 769.0, 770.0, 769.0, 768.0, 768.0, 769.0, 769.0, 769.0, 769.0, 769.0, 768.0, 767.0, 769.0, 769.0, 768.0, 767.0, 768.0, 769.0, 769.0, 769.0, 769.0, 768.0, 768.0, 769.0, 770.0, 769.0, 768.0, 767.0, 767.0, 769.0, 770.0, 770.0, 768.0, 768.0, 768.0, 768.0, 768.0, 767.0, 768.0, 771.0, 771.0, 770.0, 769.0, 768.0, 768.0, 768.0, 768.0, 769.0, 769.0, 770.0, 770.0, 770.0, 769.0, 768.0, 768.0, 769.0, 770.0, 770.0, 770.0, 769.0, 769.0, 769.0, 770.0, 770.0, 769.0, 769.0, 769.0, 770.0, 771.0, 770.0, 769.0, 769.0, 769.0, 770.0, 770.0, 769.0, 768.0, 769.0, 769.0, 769.0, 769.0, 769.0, 769.0, 769.0, 769.0, 769.0, 769.0, 769.0, 769.0, 769.0, 769.0, 769.0, 770.0, 769.0, 768.0, 768.0, 769.0, 770.0, 770.0, 770.0, 769.0, 768.0, 768.0, 768.0, 768.0, 769.0, 770.0, 769.0, 769.0, 769.0, 769.0, 769.0, 769.0, 769.0, 769.0, 769.0, 769.0, 770.0, 770.0, 771.0, 771.0, 769.0, 769.0, 769.0, 769.0, 768.0, 767.0, 767.0, 768.0, 768.0, 768.0, 769.0, 770.0, 769.0],
      "WindowWidth": [1712.0, 1700.0, 1701.0, 1699.0, 1695.0, 1695.0, 1694.0, 1697.0, 1692.0, 1693.0, 1692.0, 1695.0, 1698.0, 1697.0, 1699.0, 1696.0, 1695.0, 1693.0, 1693.0, 1699.0, 1698.0, 1700.0, 1706.0, 1704.0, 1701.0, 1697.0, 1695.0, 1695.0, 1698.0, 1701.0, 1703.0, 1704.0, 1702.0, 1699.0, 1698.0, 1701.0, 1702.0, 1703.0, 1702.0, 1702.0, 1699.0, 1696.0, 1701.0, 1700.0, 1698.0, 1695.0, 1698.0, 1703.0, 1701.0, 1701.0, 1701.0, 1700.0, 1700.0, 1703.0, 1704.0, 1701.0, 1696.0, 1695.0, 1696.0, 1701.0, 1703.0, 1703.0, 1698.0, 1697.0, 1698.0, 1698.0, 1697.0, 1695.0, 1700.0, 1709.0, 1708.0, 1703.0, 1699.0, 1700.0, 1699.0, 1698.0, 1700.0, 1701.0, 1700.0, 1704.0, 1705.0, 1705.0, 1701.0, 1698.0, 1697.0, 1700.0, 1704.0, 1703.0, 1704.0, 1703.0, 1701.0, 1702.0, 1706.0, 1705.0, 1702.0, 1701.0, 1702.0, 1705.0, 1706.0, 1704.0, 1702.0, 1701.0, 1701.0, 1703.0, 1704.0, 1700.0, 1699.0, 1700.0, 1701.0, 1702.0, 1701.0, 1702.0, 1702.0, 1702.0, 1701.0, 1703.0, 1702.0, 1700.0, 1701.0, 1702.0, 1701.0, 1702.0, 1704.0, 1700.0, 1697.0, 1697.0, 1701.0, 1703.0, 1706.0, 1705.0, 1701.0, 1698.0, 1698.0, 1698.0, 1699.0, 1703.0, 1703.0, 1702.0, 1702.0, 1703.0, 1702.0, 1701.0, 1701.0, 1701.0, 1700.0, 1700.0, 1702.0, 1704.0, 1705.0, 1706.0, 1706.0, 1702.0, 1700.0, 1701.0, 1700.0, 1697.0, 1694.0, 1695.0, 1699.0, 1699.0, 1696.0, 1701.0, 1703.0, 1699.0]
    },
    "slices": {}
  }
}