{
  "AcquisitionMatrixPE": 64,
  "AcquisitionNumber": 1,
  "AcquisitionTime": "09:18:44.525000",
  "BandwidthPerPixelPhaseEncode": 33.967,
  "BaseResolution": 64,
  "CoilCombinationMethod": "Sum of Squares",
  "CoilString": "C:HEA;HEP",
  "ConversionSoftware": "dcm2niix",
  "ConversionSoftwareVersion": "v1.0.20220720",
  "DerivedVendorReportedEchoSpacing": 0.000460005,
  "DeviceSerialNumber": "35193",
  "DwellTime": 3.1e-06,
  "EchoTime": 0.03,
  "EffectiveEchoSpacing": 0.000460005,
  "FlipAngle": 90,
  "HeudiconvVersion": "1.1.6",
  "ImageOrientationPatientDICOM": [0.99956, 0, 0.0296662, 0, 1, 0],
  "ImageOrientationText": "Tra>Sag(1.7)",
  "ImageType": [
    "ORIGINAL",
    "PRIMARY",
    "M",
    "ND",
    "MOSAIC"
],
  "ImagingFrequency": 123.254,
  "InPlanePhaseEncodingDirectionDICOM": "COL",
  "InstitutionAddress": "Xinjiekouwai Street No 19,Beijing,Haidian District,CN,100875",
  "InstitutionName": "Beijing Normal Universtiy/577BC4/",
  "InstitutionalDepartmentName": "Department",
  "MRAcquisitionType": "2D",
  "MagneticFieldStrength": 3,
  "Manufacturer": "Siemens",
  "ManufacturersModelName": "TrioTim",
  "MatrixCoilMode": "SENSE",
  "Modality": "MR",
  "NonlinearGradientCorrection": false,
  "PartialFourier": 1,
  "PatientPosition": "HFS",
  "PercentPhaseFOV": 100,
  "PercentSampling": 100,
  "PhaseEncodingDirection": "j-",
  "PhaseEncodingSteps": 64,
  "PhaseResolution": 1,
  "PixelBandwidth": 2520,
  "ProcedureStepDescription": "BNU_cst_2011^Gong.GaoLang",
  "ProtocolName": "ge_func_3x3x4_164",
  "PulseSequenceDetails": "%SiemensSeq%\\ep2d_bold",
  "ReceiveCoilName": "HeadMatrix",
  "ReconMatrixPE": 64,
  "RepetitionTime": 2,
  "SAR": 0.12394,
  "ScanOptions": "FS",
  "ScanningSequence": "EP",
  "SequenceName": "*epfid2d1_64",
  "SequenceVariant": "SK",
  "SeriesDescription": "ge_func_3x3x4_164",
  "SeriesNumber": 5,
  "ShimSetting": [-4421, -19395, -9800, 1250, 0, -423, -37, -73],
  "SliceThickness": 4,
  "SliceTiming": [0, 1.0325, 0.06, 1.095, 0.12, 1.155, 0.1825, 1.215, 0.2425, 1.2775, 0.3025, 1.3375, 0.365, 1.3975, 0.425, 1.46, 0.485, 1.52, 0.5475, 1.58, 0.6075, 1.6425, 0.6675, 1.7025, 0.73, 1.7625, 0.79, 1.825, 0.85, 1.885, 0.9125, 1.945, 0.9725],
  "SoftwareVersions": "syngo MR B17",
  "SpacingBetweenSlices": 4.6,
  "StationName": "MRC35193",
  "TaskName": "CognitiveControl",
  "TotalReadoutTime": 0.0289803,
  "TxRefAmp": 337.717,
  "dcmmeta_affine": [
    [-3.123624563217163, 0.0, 0.13646471500396729, 87.65206909179688],
    [0.0, 3.125, 0.0, -82.03162384033203],
    [0.09270700812339783, 0.0, 4.597975254058838, -50.220977783203125],
    [0.0, 0.0, 0.0, 1.0]
],
  "dcmmeta_reorient_transform": [
    [0.0, -1.0, 0.0, 63.0],
    [1.0, 0.0, 0.0, 0.0],
    [0.0, 0.0, 1.0, 0.0],
    [0.0, 0.0, 0.0, 1.0]
],
  "dcmmeta_shape": [64, 64, 33, 164],
  "dcmmeta_slice_dim": 2,
  "dcmmeta_version": 0.6,
  "global": {
    "const": {
      "AcquisitionMatrix": [64, 0, 0, 64],
      "AngioFlag": "N",
      "BitsAllocated": 16,
      "BitsStored": 12,
      "Columns": 384,
      "EchoNumbers": 1,
      "EchoTime": 30.0,
      "EchoTrainLength": 1,
      "FlipAngle": 90.0,
      "HighBit": 11,
      "ImageOrientationPatient": [0.9995598601523, 0.0, 0.02966624297621, 0.0, 1.0, 0.0],
      "ImagePositionPatient": [-587.43199820655, -614.84337329865, -65.054098355307],
      "ImageType": [
        "ORIGINAL",
        "PRIMARY",
        "M",
        "ND",
        "MOSAIC"
],
      "ImagedNucleus": "1H",
      "ImagingFrequency": 123.253604,
      "InPlanePhaseEncodingDirection": "COL",
      "MRAcquisitionType": "2D",
      "MagneticFieldStrength": 3.0,
      "Manufacturer": "SIEMENS",
      "ManufacturerModelName": "TrioTim",
      "Modality": "MR",
      "NumberOfAverages": 1.0,
      "NumberOfPhaseEncodingSteps": 64,
      "PercentPhaseFieldOfView": 100.0,
      "PercentSampling": 100.0,
      "PerformedProcedureStepStartTime": "085637.828000",
      "PhotometricInterpretation": "MONOCHROME2",
      "PixelBandwidth": 2520.0,
      "PixelRepresentation": 0,
      "PixelSpacing": [3.125, 3.125],
      "ProtocolName": "ge_func_3x3x4_164",
      "RepetitionTime": 2000.0,
      "Rows": 384,
      "SAR": 0.12393960512653,
      "SamplesPerPixel": 1,
      "ScanOptions": "FS",
      "ScanningSequence": "EP",
      "SequenceName": "*epfid2d1_64",
      "SequenceVariant": "SK",
      "SeriesDescription": "ge_func_3x3x4_164",
      "SeriesNumber": 5,
      "SeriesTime": "091941.765000",
      "SliceLocation": -47.598565063567,
      "SliceThickness": 4.0,
      "SmallestImagePixelValue": 0,
      "SoftwareVersions": "syngo MR B17",
      "SpacingBetweenSlices": 4.6000000169226,
      "SpecificCharacterSet": "ISO_IR 100",
      "StudyID": "1",
      "StudyTime": "085636.781000",
      "TransmitCoilName": "Body",
      "VariableFlipAngleFlag": "N",
      "WindowCenterWidthExplanation": "Algo1",
      "dBdt": 0.0},
    "slices": {}
  },
  "time": {
    "samples": {
      "AcquisitionNumber": [1, 2, 3, 4, 5, 6, 7, 8, 9, 10, 11, 12, 13, 14, 15, 16, 17, 18, 19, 20, 21, 22, 23, 24, 25, 26, 27, 28, 29, 30, 31, 32, 33, 34, 35, 36, 37, 38, 39, 40, 41, 42, 43, 44, 45, 46, 47, 48, 49, 50, 51, 52, 53, 54, 55, 56, 57, 58, 59, 60, 61, 62, 63, 64, 65, 66, 67, 68, 69, 70, 71, 72, 73, 74, 75, 76, 77, 78, 79, 80, 81, 82, 83, 84, 85, 86, 87, 88, 89, 90, 91, 92, 93, 94, 95, 96, 97, 98, 99, 100, 101, 102, 103, 104, 105, 106, 107, 108, 109, 110, 111, 112, 113, 114, 115, 116, 117, 118, 119, 120, 121, 122, 123, 124, 125, 126, 127, 128, 129, 130, 131, 132, 133, 134, 135, 136, 137, 138, 139, 140, 141, 142, 143, 144, 145, 146, 147, 148, 149, 150, 151, 152, 153, 154, 155, 156, 157, 158, 159, 160, 161, 162, 163, 164],
      "AcquisitionTime": ["091844.525000", "091846.532500", "091848.540000", "091850.547500", "091852.557500", "091854.565000", "091856.572500", "091858.580000", "091900.587500", "091902.597500", "091904.605000", "091906.612500", "091908.620000", "091910.627500", "091912.637500", "091914.645000", "091916.652500", "091918.660000", "091920.667500", "091922.677500", "091924.685000", "091926.692500", "091928.700000", "091930.710000", "091932.717500", "091934.725000", "091936.732500", "091938.740000", "091940.750000", "091942.757500", "091944.765000", "091946.772500", "091948.780000", "091950.790000", "091952.797500", "091954.805000", "091956.812500", "091958.822500", "092000.830000", "092002.837500", "092004.845000", "092006.852500", "092008.862500", "092010.870000", "092012.877500", "092014.885000", "092016.892500", "092018.902500", "092020.910000", "092022.917500", "092024.925000", "092026.935000", "092028.942500", "092030.950000", "092032.957500", "092034.965000", "092036.975000", "092038.982500", "092040.990000", "092042.997500", "092045.005000", "092047.015000", "092049.022500", "092051.030000", "092053.037500", "092055.045000", "092057.055000", "092059.062500", "092101.070000", "092103.077500", "092105.087500", "092107.095000", "092109.102500", "092111.110000", "092113.117500", "092115.127500", "092117.135000", "092119.142500", "092121.150000", "092123.157500", "092125.167500", "092127.175000", "092129.182500", "092131.190000", "092133.200000", "092135.207500", "092137.215000", "092139.222500", "092141.230000", "092143.240000", "092145.247500", "092147.255000", "092149.262500", "092151.270000", "092153.280000", "092155.287500", "092157.295000", "092159.302500", "092201.312500", "092203.320000", "092205.327500", "092207.335000", "092209.342500", "092211.352500", "092213.360000", "092215.367500", "092217.375000", "092219.382500", "092221.392500", "092223.400000", "092225.407500", "092227.415000", "092229.422500", "092231.432500", "092233.440000", "092235.447500", "092237.455000", "092239.465000", "092241.472500", "092243.480000", "092245.487500", "092247.495000", "092249.505000", "092251.512500", "092253.520000", "092255.527500", "092257.535000", "092259.545000", "092301.552500", "092303.560000", "092305.567500", "092307.577500", "092309.585000", "092311.592500", "092313.600000", "092315.607500", "092317.617500", "092319.625000", "092321.632500", "092323.640000", "092325.647500", "092327.657500", "092329.665000", "092331.672500", "092333.680000", "092335.690000", "092337.697500", "092339.705000", "092341.712500", "092343.720000", "092345.730000", "092347.737500", "092349.745000", "092351.752500", "092353.760000", "092355.770000", "092357.777500", "092359.785000", "092401.792500", "092403.802500", "092405.810000", "092407.817500", "092409.825000", "092411.832500"],
      "ContentTime": ["091941.765000", "091941.765000", "091941.765000", "091941.765000", "091941.765000", "091941.765000", "091941.781000", "091941.781000", "091941.781000", "091941.781000", "091941.781000", "091941.781000", "091941.781000", "091941.781000", "091941.796000", "091941.796000", "091941.796000", "091941.796000", "091941.796000", "091941.812000", "091941.812000", "091941.812000", "091941.812000", "091941.812000", "091941.828000", "091941.828000", "091941.828000", "092021.750000", "092021.765000", "092021.765000", "092021.765000", "092021.765000", "092021.765000", "092021.781000", "092021.781000", "092021.781000", "092021.781000", "092021.781000", "092021.796000", "092021.796000", "092021.796000", "092021.796000", "092021.796000", "092021.796000", "092021.796000", "092021.796000", "092021.796000", "092101.750000", "092101.765000", "092101.765000", "092101.765000", "092101.765000", "092101.765000", "092101.765000", "092101.765000", "092101.765000", "092101.781000", "092101.781000", "092101.781000", "092101.781000", "092101.781000", "092101.796000", "092101.796000", "092101.796000", "092101.796000", "092101.796000", "092101.796000", "092141.750000", "092141.765000", "092141.765000", "092141.765000", "092141.781000", "092141.781000", "092141.781000", "092141.781000", "092141.781000", "092141.781000", "092141.781000", "092141.781000", "092141.781000", "092141.796000", "092141.796000", "092141.796000", "092141.796000", "092141.796000", "092141.796000", "092141.796000", "092221.750000", "092221.765000", "092221.765000", "092221.765000", "092221.765000", "092221.765000", "092221.765000", "092221.765000", "092221.765000", "092221.781000", "092221.781000", "092221.781000", "092221.781000", "092221.781000", "092221.781000", "092221.796000", "092221.796000", "092221.796000", "092221.796000", "092221.796000", "092301.750000", "092301.765000", "092301.765000", "092301.765000", "092301.765000", "092301.765000", "092301.765000", "092301.781000", "092301.781000", "092301.781000", "092301.781000", "092301.781000", "092301.781000", "092301.781000", "092301.781000", "092301.781000", "092301.796000", "092301.796000", "092301.796000", "092301.796000", "092341.750000", "092341.765000", "092341.765000", "092341.765000", "092341.765000", "092341.765000", "092341.781000", "092341.781000", "092341.781000", "092341.781000", "092341.781000", "092341.781000", "092341.796000", "092341.796000", "092341.796000", "092341.796000", "092341.796000", "092341.796000", "092341.796000", "092341.796000", "092414.203000", "092414.203000", "092414.203000", "092414.203000", "092414.203000", "092414.218000", "092414.218000", "092414.218000", "092414.218000", "092414.218000", "092414.218000", "092414.234000", "092414.234000", "092414.234000", "092414.234000", "092414.234000", "092414.234000"],
      "InstanceCreationTime": ["091941.765000", "091941.765000", "091941.765000", "091941.765000", "091941.765000", "091941.765000", "091941.781000", "091941.781000", "091941.781000", "091941.781000", "091941.781000", "091941.781000", "091941.781000", "091941.781000", "091941.796000", "091941.796000", "091941.796000", "091941.796000", "091941.796000", "091941.812000", "091941.812000", "091941.812000", "091941.812000", "091941.812000", "091941.828000", "091941.828000", "091941.828000", "092021.750000", "092021.765000", "092021.765000", "092021.765000", "092021.765000", "092021.765000", "092021.781000", "092021.781000", "092021.781000", "092021.781000", "092021.781000", "092021.796000", "092021.796000", "092021.796000", "092021.796000", "092021.796000", "092021.796000", "092021.796000", "092021.796000", "092021.796000", "092101.750000", "092101.765000", "092101.765000", "092101.765000", "092101.765000", "092101.765000", "092101.765000", "092101.765000", "092101.765000", "092101.781000", "092101.781000", "092101.781000", "092101.781000", "092101.781000", "092101.796000", "092101.796000", "092101.796000", "092101.796000", "092101.796000", "092101.796000", "092141.750000", "092141.765000", "092141.765000", "092141.765000", "092141.781000", "092141.781000", "092141.781000", "092141.781000", "092141.781000", "092141.781000", "092141.781000", "092141.781000", "092141.781000", "092141.796000", "092141.796000", "092141.796000", "092141.796000", "092141.796000", "092141.796000", "092141.796000", "092221.750000", "092221.765000", "092221.765000", "092221.765000", "092221.765000", "092221.765000", "092221.765000", "092221.765000", "092221.765000", "092221.781000", "092221.781000", "092221.781000", "092221.781000", "092221.781000", "092221.781000", "092221.796000", "092221.796000", "092221.796000", "092221.796000", "092221.796000", "092301.750000", "092301.765000", "092301.765000", "092301.765000", "092301.765000", "092301.765000", "092301.765000", "092301.781000", "092301.781000", "092301.781000", "092301.781000", "092301.781000", "092301.781000", "092301.781000", "092301.781000", "092301.781000", "092301.796000", "092301.796000", "092301.796000", "092301.796000", "092341.750000", "092341.765000", "092341.765000", "092341.765000", "092341.765000", "092341.765000", "092341.781000", "092341.781000", "092341.781000", "092341.781000", "092341.781000", "092341.781000", "092341.796000", "092341.796000", "092341.796000", "092341.796000", "092341.796000", "092341.796000", "092341.796000", "092341.796000", "092414.203000", "092414.203000", "092414.203000", "092414.203000", "092414.203000", "092414.218000", "092414.218000", "092414.218000", "092414.218000", "092414.218000", "092414.218000", "092414.234000", "092414.234000", "092414.234000", "092414.234000", "092414.234000", "092414.234000"],
      "InstanceNumber": [1, 2, 3, 4, 5, 6, 7, 8, 9, 10, 11, 12, 13, 14, 15, 16, 17, 18, 19, 20, 21, 22, 23, 24, 25, 26, 27, 28, 29, 30, 31, 32, 33, 34, 35, 36, 37, 38, 39, 40, 41, 42, 43, 44, 45, 46, 47, 48, 49, 50, 51, 52, 53, 54, 55, 56, 57, 58, 59, 60, 61, 62, 63, 64, 65, 66, 67, 68, 69, 70, 71, 72, 73, 74, 75, 76, 77, 78, 79, 80, 81, 82, 83, 84, 85, 86, 87, 88, 89, 90, 91, 92, 93, 94, 95, 96, 97, 98, 99, 100, 101, 102, 103, 104, 105, 106, 107, 108, 109, 110, 111, 112, 113, 114, 115, 116, 117, 118, 119, 120, 121, 122, 123, 124, 125, 126, 127, 128, 129, 130, 131, 132, 133, 134, 135, 136, 137, 138, 139, 140, 141, 142, 143, 144, 145, 146, 147, 148, 149, 150, 151, 152, 153, 154, 155, 156, 157, 158, 159, 160, 161, 162, 163, 164],
      "LargestImagePixelValue": [2168, 2100, 2070, 2037, 2026, 2035, 2044, 2026, 2019, 2045, 2039, 2045, 2002, 2019, 2032, 2033, 2017, 2003, 1988, 1994, 2025, 2026, 2026, 2012, 2001, 2002, 1982, 2009, 2016, 2022, 2017, 1988, 1987, 1982, 1993, 2011, 2024, 2025, 2005, 2016, 2018, 2000, 2008, 2007, 1988, 2007, 2020, 2027, 2020, 2022, 2013, 2015, 2013, 2019, 2032, 2042, 2033, 2035, 2037, 2046, 2059, 2052, 2032, 2012, 2013, 2030, 2043, 2038, 2004, 2022, 2042, 2033, 2036, 2017, 2028, 2026, 2033, 2043, 2067, 2065, 2068, 2044, 2024, 2043, 2046, 2059, 2073, 2073, 2066, 2041, 2041, 2067, 2052, 2058, 2049, 2048, 2058, 2058, 2065, 2057, 2058, 2038, 2047, 2057, 2063, 2058, 2045, 2058, 2055, 2067, 2059, 2063, 2061, 2063, 2082, 2090, 2070, 2063, 2054, 2033, 2092, 2076, 2098, 2108, 2126, 2092, 2074, 2064, 2072, 2068, 2056, 2072, 2073, 2073, 2070, 2072, 2067, 2080, 2069, 2073, 2070, 2069, 2056, 2059, 2071, 2094, 2146, 2127, 2120, 2100, 2092, 2093, 2107, 2112, 2123, 2098, 2083, 2114, 2107, 2121, 2131, 2121, 2103, 2095],
      "WindowCenter": [772.0, 769.0, 768.0, 766.0, 766.0, 767.0, 767.0, 767.0, 766.0, 767.0, 767.0, 767.0, 766.0, 767.0, 767.0, 767.0, 768.0, 767.0, 767.0, 767.0, 767.0, 767.0, 768.0, 768.0, 767.0, 766.0, 767.0, 767.0, 768.0, 767.0, 767.0, 767.0, 768.0, 768.0, 767.0, 767.0, 768.0, 768.0, 767.0, 767.0, 768.0, 768.0, 767.0, 767.0, 767.0, 767.0, 767.0, 768.0, 767.0, 767.0, 768.0, 768.0, 768.0, 768.0, 768.0, 768.0, 767.0, 767.0, 768.0, 767.0, 768.0, 768.0, 768.0, 768.0, 768.0, 768.0, 768.0, 768.0, 768.0, 769.0, 769.0, 769.0, 768.0, 768.0, 768.0, 769.0, 769.0, 769.0, 769.0, 769.0, 769.0, 769.0, 769.0, 768.0, 769.0, 769.0, 769.0, 769.0, 769.0, 769.0, 769.0, 769.0, 769.0, 769.0, 768.0, 768.0, 769.0, 769.0, 769.0, 768.0, 768.0, 768.0, 768.0, 769.0, 770.0, 769.0, 769.0, 769.0, 770.0, 770.0, 769.0, 769.0, 769.0, 769.0, 770.0, 770.0, 769.0, 769.0, 768.0, 768.0, 769.0, 770.0, 771.0, 770.0, 769.0, 769.0, 769.0, 769.0, 769.0, 769.0, 769.0, 769.0, 769.0, 769.0, 769.0, 769.0, 769.0, 769.0, 769.0, 769.0, 768.0, 769.0, 770.0, 770.0, 770.0, 770.0, 770.0, 771.0, 770.0, 770.0, 770.0, 769.0, 768.0, 770.0, 771.0, 770.0, 769.0, 769.0, 770.0, 770.0, 770.0, 770.0, 770.0, 770.0],
      "WindowWidth": [1713.0, 1703.0, 1697.0, 1693.0, 1693.0, 1695.0, 1696.0, 1694.0, 1693.0, 1695.0, 1696.0, 1695.0, 1693.0, 1695.0, 1695.0, 1696.0, 1697.0, 1694.0, 1694.0, 1696.0, 1695.0, 1696.0, 1699.0, 1699.0, 1695.0, 1693.0, 1695.0, 1696.0, 1698.0, 1696.0, 1696.0, 1697.0, 1699.0, 1698.0, 1694.0, 1696.0, 1698.0, 1697.0, 1696.0, 1697.0, 1698.0, 1698.0, 1697.0, 1697.0, 1697.0, 1695.0, 1696.0, 1698.0, 1697.0, 1697.0, 1697.0, 1699.0, 1697.0, 1698.0, 1698.0, 1699.0, 1697.0, 1697.0, 1698.0, 1697.0, 1699.0, 1699.0, 1698.0, 1698.0, 1699.0, 1699.0, 1698.0, 1698.0, 1697.0, 1700.0, 1703.0, 1701.0, 1699.0, 1699.0, 1699.0, 1700.0, 1702.0, 1703.0, 1702.0, 1701.0, 1703.0, 1702.0, 1700.0, 1700.0, 1701.0, 1701.0, 1701.0, 1701.0, 1701.0, 1702.0, 1701.0, 1702.0, 1702.0, 1701.0, 1700.0, 1698.0, 1701.0, 1704.0, 1702.0, 1699.0, 1699.0, 1699.0, 1699.0, 1702.0, 1704.0, 1703.0, 1701.0, 1703.0, 1705.0, 1705.0, 1702.0, 1702.0, 1702.0, 1702.0, 1706.0, 1706.0, 1702.0, 1700.0, 1699.0, 1700.0, 1703.0, 1706.0, 1708.0, 1706.0, 1703.0, 1702.0, 1702.0, 1703.0, 1702.0, 1701.0, 1701.0, 1702.0, 1703.0, 1702.0, 1703.0, 1702.0, 1701.0, 1703.0, 1703.0, 1702.0, 1700.0, 1702.0, 1705.0, 1705.0, 1706.0, 1705.0, 1706.0, 1708.0, 1705.0, 1705.0, 1704.0, 1701.0, 1700.0, 1705.0, 1709.0, 1706.0, 1702.0, 1702.0, 1704.0, 1705.0, 1705.0, 1705.0, 1706.0, 1706.0]
    },
    "slices": {}
  }
}