{
  "AcquisitionMatrixPE": 64,
  "AcquisitionNumber": 1,
  "AcquisitionTime": "14:09:4.847500",
  "BandwidthPerPixelPhaseEncode": 33.967,
  "BaseResolution": 64,
  "CoilCombinationMethod": "Sum of Squares",
  "CoilString": "C:HEA;HEP",
  "ConversionSoftware": "dcm2niix",
  "ConversionSoftwareVersion": "v1.0.20220720",
  "DerivedVendorReportedEchoSpacing": 0.000460005,
  "DeviceSerialNumber": "35193",
  "DwellTime": 3.1e-06,
  "EchoTime": 0.03,
  "EffectiveEchoSpacing": 0.000460005,
  "FlipAngle": 90,
  "HeudiconvVersion": "1.1.6",
  "ImageOrientationPatientDICOM": [0.999109, -0.0209424, 0.0366357, 0.0209284, 0.999781, 0.000767409],
  "ImageOrientationText": "Tra>Sag(2.1)",
  "ImageType": [
    "ORIGINAL",
    "PRIMARY",
    "M",
    "ND",
    "MOSAIC"
],
  "ImagingFrequency": 123.254,
  "InPlanePhaseEncodingDirectionDICOM": "COL",
  "InstitutionAddress": "Xinjiekouwai Street No 19,Beijing,Haidian District,CN,100875",
  "InstitutionName": "Beijing Normal Universtiy/2773C4/",
  "InstitutionalDepartmentName": "Department",
  "MRAcquisitionType": "2D",
  "MagneticFieldStrength": 3,
  "Manufacturer": "Siemens",
  "ManufacturersModelName": "TrioTim",
  "MatrixCoilMode": "SENSE",
  "Modality": "MR",
  "NonlinearGradientCorrection": false,
  "PartialFourier": 1,
  "PatientPosition": "HFS",
  "PercentPhaseFOV": 100,
  "PercentSampling": 100,
  "PhaseEncodingDirection": "j-",
  "PhaseEncodingSteps": 64,
  "PhaseResolution": 1,
  "PixelBandwidth": 2520,
  "ProcedureStepDescription": "BNU_cst_2015^Guo.TaoMei",
  "ProtocolName": "ge_func_3x3x4_164",
  "PulseSequenceDetails": "%SiemensSeq%\\ep2d_bold",
  "ReceiveCoilName": "HeadMatrix",
  "ReconMatrixPE": 64,
  "RepetitionTime": 2,
  "SAR": 0.160676,
  "ScanOptions": "FS",
  "ScanningSequence": "EP",
  "SequenceName": "*epfid2d1_64",
  "SequenceVariant": "SK",
  "SeriesDescription": "ge_func_3x3x4_164",
  "SeriesNumber": 5,
  "ShimSetting": [-4478, -19516, -9815, 1273, -119, -574, -33, 1],
  "SliceThickness": 4,
  "SliceTiming": [0, 1.0325, 0.06, 1.095, 0.12, 1.155, 0.1825, 1.215, 0.2425, 1.2775, 0.3025, 1.3375, 0.365, 1.3975, 0.425, 1.46, 0.485, 1.52, 0.5475, 1.58, 0.6075, 1.6425, 0.6675, 1.7025, 0.73, 1.7625, 0.79, 1.825, 0.85, 1.885, 0.9125, 1.945, 0.9725],
  "SoftwareVersions": "syngo MR B17",
  "SpacingBetweenSlices": 4.6,
  "StationName": "MRC35193",
  "TaskName": "LanguageControl",
  "TotalReadoutTime": 0.0289803,
  "TxRefAmp": 322.347,
  "dcmmeta_affine": [
    [-3.12221622467041, 0.06540117412805557, 0.16856105625629425, 95.18650817871094],
    [0.06544512510299683, 3.124314546585083, 3.2549738460119215e-09, -88.15281677246094],
    [0.11448647081851959, -0.0023981542326509953, 4.59691047668457, -63.64582061767578],
    [0.0, 0.0, 0.0, 1.0]
],
  "dcmmeta_reorient_transform": [
    [0.0, -1.0, 0.0, 63.0],
    [1.0, 0.0, 0.0, 0.0],
    [0.0, 0.0, 1.0, 0.0],
    [0.0, 0.0, 0.0, 1.0]
],
  "dcmmeta_shape": [64, 64, 33, 164],
  "dcmmeta_slice_dim": 2,
  "dcmmeta_version": 0.6,
  "global": {
    "const": {
      "AcquisitionMatrix": [64, 0, 0, 64],
      "AngioFlag": "N",
      "BitsAllocated": 16,
      "BitsStored": 12,
      "Columns": 384,
      "EchoNumbers": 1,
      "EchoTime": 30.0,
      "EchoTrainLength": 1,
      "FlipAngle": 90.0,
      "HighBit": 11,
      "ImageOrientationPatient": [0.9991092241627, -0.0209424397059, 0.0366356713079, 0.02092837460781, 0.99978068305962, 0.00076740935045],
      "ImagePositionPatient": [-609.3255823622, -598.09812633296, -82.498443243641],
      "ImageType": [
        "ORIGINAL",
        "PRIMARY",
        "M",
        "ND",
        "MOSAIC"
],
      "ImagedNucleus": "1H",
      "ImagingFrequency": 123.25367,
      "InPlanePhaseEncodingDirection": "COL",
      "MRAcquisitionType": "2D",
      "MagneticFieldStrength": 3.0,
      "Manufacturer": "SIEMENS",
      "ManufacturerModelName": "TrioTim",
      "Modality": "MR",
      "NumberOfAverages": 1.0,
      "NumberOfPhaseEncodingSteps": 64,
      "PercentPhaseFieldOfView": 100.0,
      "PercentSampling": 100.0,
      "PerformedProcedureStepStartTime": "134743.625000",
      "PhotometricInterpretation": "MONOCHROME2",
      "PixelBandwidth": 2520.0,
      "PixelRepresentation": 0,
      "PixelSpacing": [3.125, 3.125],
      "ProtocolName": "ge_func_3x3x4_164",
      "RepetitionTime": 2000.0,
      "Rows": 384,
      "SAR": 0.16067565936163,
      "SamplesPerPixel": 1,
      "ScanOptions": "FS",
      "ScanningSequence": "EP",
      "SequenceName": "*epfid2d1_64",
      "SequenceVariant": "SK",
      "SeriesDescription": "ge_func_3x3x4_164",
      "SeriesNumber": 5,
      "SeriesTime": "140916.765000",
      "SliceLocation": -60.115087693782,
      "SliceThickness": 4.0,
      "SmallestImagePixelValue": 0,
      "SoftwareVersions": "syngo MR B17",
      "SpacingBetweenSlices": 4.6000001035126,
      "SpecificCharacterSet": "ISO_IR 100",
      "StudyID": "1",
      "StudyTime": "134743.578000",
      "TransmitCoilName": "Body",
      "VariableFlipAngleFlag": "N",
      "WindowCenterWidthExplanation": "Algo1",
      "dBdt": 0.0},
    "slices": {}
  },
  "time": {
    "samples": {
      "AcquisitionNumber": [1, 2, 3, 4, 5, 6, 7, 8, 9, 10, 11, 12, 13, 14, 15, 16, 17, 18, 19, 20, 21, 22, 23, 24, 25, 26, 27, 28, 29, 30, 31, 32, 33, 34, 35, 36, 37, 38, 39, 40, 41, 42, 43, 44, 45, 46, 47, 48, 49, 50, 51, 52, 53, 54, 55, 56, 57, 58, 59, 60, 61, 62, 63, 64, 65, 66, 67, 68, 69, 70, 71, 72, 73, 74, 75, 76, 77, 78, 79, 80, 81, 82, 83, 84, 85, 86, 87, 88, 89, 90, 91, 92, 93, 94, 95, 96, 97, 98, 99, 100, 101, 102, 103, 104, 105, 106, 107, 108, 109, 110, 111, 112, 113, 114, 115, 116, 117, 118, 119, 120, 121, 122, 123, 124, 125, 126, 127, 128, 129, 130, 131, 132, 133, 134, 135, 136, 137, 138, 139, 140, 141, 142, 143, 144, 145, 146, 147, 148, 149, 150, 151, 152, 153, 154, 155, 156, 157, 158, 159, 160, 161, 162, 163, 164],
      "AcquisitionTime": ["140904.847500", "140906.855000", "140908.862500", "140910.870000", "140912.880000", "140914.887500", "140916.895000", "140918.902500", "140920.910000", "140922.920000", "140924.927500", "140926.935000", "140928.942500", "140930.952500", "140932.960000", "140934.967500", "140936.975000", "140938.982500", "140940.992500", "140943.000000", "140945.007500", "140947.015000", "140949.022500", "140951.032500", "140953.040000", "140955.047500", "140957.055000", "140959.065000", "141001.072500", "141003.080000", "141005.087500", "141007.095000", "141009.105000", "141011.112500", "141013.120000", "141015.127500", "141017.135000", "141019.145000", "141021.152500", "141023.160000", "141025.167500", "141027.175000", "141029.185000", "141031.192500", "141033.200000", "141035.207500", "141037.217500", "141039.225000", "141041.232500", "141043.240000", "141045.247500", "141047.257500", "141049.265000", "141051.272500", "141053.280000", "141055.287500", "141057.297500", "141059.305000", "141101.312500", "141103.320000", "141105.330000", "141107.337500", "141109.345000", "141111.352500", "141113.360000", "141115.370000", "141117.377500", "141119.385000", "141121.392500", "141123.400000", "141125.410000", "141127.417500", "141129.425000", "141131.432500", "141133.442500", "141135.450000", "141137.457500", "141139.465000", "141141.472500", "141143.482500", "141145.490000", "141147.497500", "141149.505000", "141151.512500", "141153.522500", "141155.530000", "141157.537500", "141159.545000", "141201.555000", "141203.562500", "141205.570000", "141207.577500", "141209.585000", "141211.595000", "141213.602500", "141215.610000", "141217.617500", "141219.625000", "141221.635000", "141223.642500", "141225.650000", "141227.657500", "141229.665000", "141231.675000", "141233.682500", "141235.690000", "141237.697500", "141239.707500", "141241.715000", "141243.722500", "141245.730000", "141247.737500", "141249.747500", "141251.755000", "141253.762500", "141255.770000", "141257.777500", "141259.787500", "141301.795000", "141303.802500", "141305.810000", "141307.820000", "141309.827500", "141311.835000", "141313.842500", "141315.850000", "141317.860000", "141319.867500", "141321.875000", "141323.882500", "141325.890000", "141327.900000", "141329.907500", "141331.915000", "141333.922500", "141335.932500", "141337.940000", "141339.947500", "141341.955000", "141343.962500", "141345.972500", "141347.980000", "141349.987500", "141351.995000", "141354.002500", "141356.012500", "141358.020000", "141400.027500", "141402.035000", "141404.042500", "141406.052500", "141408.060000", "141410.067500", "141412.075000", "141414.085000", "141416.092500", "141418.100000", "141420.107500", "141422.115000", "141424.125000", "141426.132500", "141428.140000", "141430.147500", "141432.155000"],
      "ContentTime": ["140916.781000", "140916.781000", "140916.781000", "140916.781000", "140916.781000", "140956.765000", "140956.765000", "140956.796000", "140956.796000", "140956.796000", "140956.796000", "140956.796000", "140956.796000", "140956.812000", "140956.812000", "140956.812000", "140956.812000", "140956.812000", "140956.812000", "140956.812000", "140956.812000", "140956.828000", "140956.828000", "140956.828000", "140956.828000", "141036.765000", "141036.781000", "141036.781000", "141036.781000", "141036.781000", "141036.796000", "141036.796000", "141036.796000", "141036.796000", "141036.796000", "141036.796000", "141036.796000", "141036.796000", "141036.812000", "141036.812000", "141036.812000", "141036.812000", "141036.812000", "141036.812000", "141036.812000", "141116.765000", "141116.765000", "141116.781000", "141116.781000", "141116.781000", "141116.781000", "141116.781000", "141116.781000", "141116.781000", "141116.796000", "141116.796000", "141116.796000", "141116.796000", "141116.796000", "141116.796000", "141116.796000", "141116.812000", "141116.812000", "141116.812000", "141116.812000", "141156.765000", "141156.765000", "141156.765000", "141156.781000", "141156.781000", "141156.781000", "141156.796000", "141156.796000", "141156.796000", "141156.812000", "141156.812000", "141156.828000", "141156.828000", "141156.828000", "141156.828000", "141156.828000", "141156.843000", "141156.843000", "141156.843000", "141156.843000", "141236.765000", "141236.765000", "141236.781000", "141236.781000", "141236.781000", "141236.812000", "141236.812000", "141236.812000", "141236.812000", "141236.812000", "141236.828000", "141236.828000", "141236.828000", "141236.828000", "141236.828000", "141236.828000", "141236.828000", "141236.828000", "141236.843000", "141236.843000", "141316.765000", "141316.765000", "141316.781000", "141316.781000", "141316.781000", "141316.781000", "141316.781000", "141316.781000", "141316.781000", "141316.796000", "141316.796000", "141316.812000", "141316.812000", "141316.812000", "141316.812000", "141316.812000", "141316.812000", "141316.812000", "141316.828000", "141316.828000", "141356.765000", "141356.765000", "141356.781000", "141356.781000", "141356.781000", "141356.781000", "141356.796000", "141356.796000", "141356.796000", "141356.796000", "141356.796000", "141356.812000", "141356.812000", "141356.812000", "141356.812000", "141356.812000", "141356.812000", "141356.812000", "141356.828000", "141356.828000", "141434.046000", "141434.046000", "141434.046000", "141434.062000", "141434.062000", "141434.062000", "141434.062000", "141434.062000", "141434.062000", "141434.062000", "141434.062000", "141434.078000", "141434.078000", "141434.078000", "141434.078000", "141434.078000", "141434.078000", "141434.078000", "141434.093000"],
      "InstanceCreationTime": ["140916.781000", "140916.781000", "140916.781000", "140916.781000", "140916.781000", "140956.765000", "140956.765000", "140956.796000", "140956.796000", "140956.796000", "140956.796000", "140956.796000", "140956.796000", "140956.812000", "140956.812000", "140956.812000", "140956.812000", "140956.812000", "140956.812000", "140956.812000", "140956.812000", "140956.828000", "140956.828000", "140956.828000", "140956.828000", "141036.765000", "141036.781000", "141036.781000", "141036.781000", "141036.781000", "141036.796000", "141036.796000", "141036.796000", "141036.796000", "141036.796000", "141036.796000", "141036.796000", "141036.796000", "141036.812000", "141036.812000", "141036.812000", "141036.812000", "141036.812000", "141036.812000", "141036.812000", "141116.765000", "141116.765000", "141116.781000", "141116.781000", "141116.781000", "141116.781000", "141116.781000", "141116.781000", "141116.781000", "141116.796000", "141116.796000", "141116.796000", "141116.796000", "141116.796000", "141116.796000", "141116.796000", "141116.812000", "141116.812000", "141116.812000", "141116.812000", "141156.765000", "141156.765000", "141156.765000", "141156.781000", "141156.781000", "141156.781000", "141156.796000", "141156.796000", "141156.796000", "141156.812000", "141156.812000", "141156.828000", "141156.828000", "141156.828000", "141156.828000", "141156.828000", "141156.843000", "141156.843000", "141156.843000", "141156.843000", "141236.765000", "141236.765000", "141236.781000", "141236.781000", "141236.781000", "141236.812000", "141236.812000", "141236.812000", "141236.812000", "141236.812000", "141236.828000", "141236.828000", "141236.828000", "141236.828000", "141236.828000", "141236.828000", "141236.828000", "141236.828000", "141236.843000", "141236.843000", "141316.765000", "141316.765000", "141316.781000", "141316.781000", "141316.781000", "141316.781000", "141316.781000", "141316.781000", "141316.781000", "141316.796000", "141316.796000", "141316.812000", "141316.812000", "141316.812000", "141316.812000", "141316.812000", "141316.812000", "141316.812000", "141316.828000", "141316.828000", "141356.765000", "141356.765000", "141356.781000", "141356.781000", "141356.781000", "141356.781000", "141356.796000", "141356.796000", "141356.796000", "141356.796000", "141356.796000", "141356.812000", "141356.812000", "141356.812000", "141356.812000", "141356.812000", "141356.812000", "141356.812000", "141356.828000", "141356.828000", "141434.046000", "141434.046000", "141434.046000", "141434.062000", "141434.062000", "141434.062000", "141434.062000", "141434.062000", "141434.062000", "141434.062000", "141434.062000", "141434.078000", "141434.078000", "141434.078000", "141434.078000", "141434.078000", "141434.078000", "141434.078000", "141434.093000"],
      "InstanceNumber": [1, 2, 3, 4, 5, 6, 7, 8, 9, 10, 11, 12, 13, 14, 15, 16, 17, 18, 19, 20, 21, 22, 23, 24, 25, 26, 27, 28, 29, 30, 31, 32, 33, 34, 35, 36, 37, 38, 39, 40, 41, 42, 43, 44, 45, 46, 47, 48, 49, 50, 51, 52, 53, 54, 55, 56, 57, 58, 59, 60, 61, 62, 63, 64, 65, 66, 67, 68, 69, 70, 71, 72, 73, 74, 75, 76, 77, 78, 79, 80, 81, 82, 83, 84, 85, 86, 87, 88, 89, 90, 91, 92, 93, 94, 95, 96, 97, 98, 99, 100, 101, 102, 103, 104, 105, 106, 107, 108, 109, 110, 111, 112, 113, 114, 115, 116, 117, 118, 119, 120, 121, 122, 123, 124, 125, 126, 127, 128, 129, 130, 131, 132, 133, 134, 135, 136, 137, 138, 139, 140, 141, 142, 143, 144, 145, 146, 147, 148, 149, 150, 151, 152, 153, 154, 155, 156, 157, 158, 159, 160, 161, 162, 163, 164],
      "LargestImagePixelValue": [1670, 1619, 1576, 1587, 1590, 1583, 1570, 1586, 1579, 1574, 1568, 1559, 1575, 1584, 1573, 1580, 1561, 1578, 1568, 1561, 1585, 1575, 1577, 1597, 1580, 1572, 1580, 1580, 1580, 1606, 1596, 1610, 1623, 1607, 1598, 1586, 1581, 1585, 1586, 1571, 1573, 1577, 1570, 1571, 1574, 1609, 1596, 1614, 1603, 1600, 1580, 1583, 1581, 1571, 1586, 1585, 1597, 1580, 1578, 1579, 1583, 1608, 1602, 1615, 1590, 1603, 1593, 1574, 1584, 1618, 1583, 1573, 1596, 1567, 1586, 1588, 1568, 1582, 1593, 1577, 1578, 1581, 1566, 1565, 1565, 1573, 1558, 1570, 1564, 1560, 1581, 1566, 1581, 1585, 1566, 1568, 1563, 1576, 1559, 1572, 1576, 1580, 1572, 1569, 1574, 1589, 1578, 1571, 1580, 1560, 1548, 1563, 1567, 1574, 1566, 1560, 1575, 1562, 1563, 1556, 1562, 1557, 1563, 1577, 1557, 1572, 1559, 1572, 1559, 1564, 1573, 1576, 1578, 1561, 1541, 1572, 1561, 1575, 1566, 1574, 1563, 1559, 1627, 1549, 1563, 1588, 1569, 1566, 1660, 1573, 1567, 1586, 1582, 1571, 1559, 1570, 1560, 1579, 1554, 1568, 1568, 1566, 1569, 1570],
      "WindowCenter": [695.0, 692.0, 692.0, 692.0, 692.0, 691.0, 691.0, 690.0, 690.0, 690.0, 690.0, 691.0, 692.0, 691.0, 691.0, 691.0, 690.0, 689.0, 690.0, 689.0, 690.0, 690.0, 692.0, 692.0, 691.0, 691.0, 689.0, 688.0, 690.0, 690.0, 691.0, 692.0, 692.0, 690.0, 689.0, 688.0, 688.0, 689.0, 689.0, 690.0, 691.0, 691.0, 692.0, 692.0, 691.0, 689.0, 689.0, 690.0, 691.0, 691.0, 692.0, 691.0, 690.0, 689.0, 688.0, 689.0, 690.0, 691.0, 693.0, 693.0, 693.0, 693.0, 692.0, 691.0, 690.0, 690.0, 690.0, 692.0, 692.0, 693.0, 692.0, 692.0, 692.0, 691.0, 691.0, 691.0, 692.0, 692.0, 693.0, 693.0, 692.0, 692.0, 692.0, 691.0, 691.0, 691.0, 692.0, 692.0, 693.0, 694.0, 694.0, 693.0, 693.0, 693.0, 693.0, 693.0, 693.0, 694.0, 693.0, 692.0, 692.0, 691.0, 691.0, 691.0, 691.0, 691.0, 691.0, 692.0, 692.0, 692.0, 692.0, 692.0, 693.0, 693.0, 693.0, 693.0, 694.0, 694.0, 694.0, 694.0, 693.0, 693.0, 694.0, 696.0, 695.0, 694.0, 693.0, 692.0, 691.0, 691.0, 692.0, 694.0, 694.0, 694.0, 693.0, 694.0, 693.0, 693.0, 693.0, 693.0, 693.0, 693.0, 694.0, 693.0, 693.0, 692.0, 692.0, 692.0, 693.0, 693.0, 692.0, 693.0, 692.0, 692.0, 692.0, 692.0, 691.0, 691.0, 691.0, 692.0, 693.0, 694.0, 695.0, 694.0],
      "WindowWidth": [1505.0, 1498.0, 1499.0, 1497.0, 1498.0, 1494.0, 1493.0, 1493.0, 1492.0, 1493.0, 1493.0, 1494.0, 1497.0, 1493.0, 1495.0, 1494.0, 1492.0, 1490.0, 1491.0, 1488.0, 1491.0, 1492.0, 1497.0, 1498.0, 1496.0, 1495.0, 1490.0, 1487.0, 1491.0, 1492.0, 1496.0, 1498.0, 1497.0, 1491.0, 1488.0, 1486.0, 1486.0, 1489.0, 1490.0, 1494.0, 1495.0, 1495.0, 1497.0, 1497.0, 1493.0, 1490.0, 1489.0, 1492.0, 1495.0, 1496.0, 1496.0, 1494.0, 1492.0, 1490.0, 1487.0, 1490.0, 1493.0, 1496.0, 1499.0, 1499.0, 1500.0, 1500.0, 1498.0, 1494.0, 1491.0, 1493.0, 1493.0, 1497.0, 1498.0, 1500.0, 1499.0, 1498.0, 1498.0, 1495.0, 1493.0, 1496.0, 1497.0, 1499.0, 1500.0, 1499.0, 1497.0, 1496.0, 1496.0, 1495.0, 1496.0, 1496.0, 1499.0, 1498.0, 1501.0, 1502.0, 1503.0, 1499.0, 1500.0, 1501.0, 1499.0, 1500.0, 1499.0, 1502.0, 1500.0, 1498.0, 1498.0, 1494.0, 1495.0, 1493.0, 1494.0, 1494.0, 1493.0, 1496.0, 1498.0, 1498.0, 1497.0, 1497.0, 1499.0, 1500.0, 1501.0, 1501.0, 1502.0, 1502.0, 1503.0, 1503.0, 1500.0, 1501.0, 1502.0, 1507.0, 1505.0, 1502.0, 1499.0, 1497.0, 1494.0, 1494.0, 1498.0, 1502.0, 1502.0, 1501.0, 1501.0, 1503.0, 1501.0, 1500.0, 1499.0, 1499.0, 1499.0, 1500.0, 1502.0, 1501.0, 1500.0, 1498.0, 1497.0, 1498.0, 1501.0, 1500.0, 1498.0, 1499.0, 1497.0, 1498.0, 1498.0, 1497.0, 1495.0, 1496.0, 1496.0, 1497.0, 1500.0, 1502.0, 1505.0, 1503.0]
    },
    "slices": {}
  }
}