{
  "AcquisitionMatrixPE": 64,
  "AcquisitionNumber": 1,
  "AcquisitionTime": "13:56:12.100000",
  "BandwidthPerPixelPhaseEncode": 33.967,
  "BaseResolution": 64,
  "CoilCombinationMethod": "Sum of Squares",
  "CoilString": "C:HEA;HEP",
  "ConversionSoftware": "dcm2niix",
  "ConversionSoftwareVersion": "v1.0.20220720",
  "DerivedVendorReportedEchoSpacing": 0.000460005,
  "DeviceSerialNumber": "35193",
  "DwellTime": 3.1e-06,
  "EchoTime": 0.03,
  "EffectiveEchoSpacing": 0.000460005,
  "FlipAngle": 90,
  "HeudiconvVersion": "1.1.6",
  "ImageOrientationPatientDICOM": [0.999109, -0.0209424, 0.0366357, 0.0209284, 0.999781, 0.000767409],
  "ImageOrientationText": "Tra>Sag(2.1)",
  "ImageType": [
    "ORIGINAL",
    "PRIMARY",
    "M",
    "ND",
    "MOSAIC"
],
  "ImagingFrequency": 123.254,
  "InPlanePhaseEncodingDirectionDICOM": "COL",
  "InstitutionAddress": "Xinjiekouwai Street No 19,Beijing,Haidian District,CN,100875",
  "InstitutionName": "Beijing Normal Universtiy/2773C4/",
  "InstitutionalDepartmentName": "Department",
  "MRAcquisitionType": "2D",
  "MagneticFieldStrength": 3,
  "Manufacturer": "Siemens",
  "ManufacturersModelName": "TrioTim",
  "MatrixCoilMode": "SENSE",
  "Modality": "MR",
  "NonlinearGradientCorrection": false,
  "PartialFourier": 1,
  "PatientPosition": "HFS",
  "PercentPhaseFOV": 100,
  "PercentSampling": 100,
  "PhaseEncodingDirection": "j-",
  "PhaseEncodingSteps": 64,
  "PhaseResolution": 1,
  "PixelBandwidth": 2520,
  "ProcedureStepDescription": "BNU_cst_2015^Guo.TaoMei",
  "ProtocolName": "ge_func_3x3x4_164",
  "PulseSequenceDetails": "%SiemensSeq%\\ep2d_bold",
  "ReceiveCoilName": "HeadMatrix",
  "ReconMatrixPE": 64,
  "RepetitionTime": 2,
  "SAR": 0.160676,
  "ScanOptions": "FS",
  "ScanningSequence": "EP",
  "SequenceName": "*epfid2d1_64",
  "SequenceVariant": "SK",
  "SeriesDescription": "ge_func_3x3x4_164",
  "SeriesNumber": 3,
  "ShimSetting": [-4478, -19516, -9815, 1273, -119, -574, -33, 1],
  "SliceThickness": 4,
  "SliceTiming": [0, 1.035, 0.0625, 1.095, 0.1225, 1.1575, 0.1825, 1.2175, 0.245, 1.2775, 0.305, 1.34, 0.365, 1.4, 0.4275, 1.46, 0.4875, 1.5225, 0.5475, 1.5825, 0.61, 1.6425, 0.67, 1.705, 0.73, 1.765, 0.7925, 1.825, 0.8525, 1.8875, 0.9125, 1.9475, 0.975],
  "SoftwareVersions": "syngo MR B17",
  "SpacingBetweenSlices": 4.6,
  "StationName": "MRC35193",
  "TaskName": "CognitiveControl",
  "TotalReadoutTime": 0.0289803,
  "TxRefAmp": 322.347,
  "dcmmeta_affine": [
    [-3.12221622467041, 0.06540117412805557, 0.16856105625629425, 95.18650817871094],
    [0.06544512510299683, 3.124314546585083, 3.2549738460119215e-09, -88.15281677246094],
    [0.11448647081851959, -0.0023981542326509953, 4.59691047668457, -63.64582061767578],
    [0.0, 0.0, 0.0, 1.0]
],
  "dcmmeta_reorient_transform": [
    [0.0, -1.0, 0.0, 63.0],
    [1.0, 0.0, 0.0, 0.0],
    [0.0, 0.0, 1.0, 0.0],
    [0.0, 0.0, 0.0, 1.0]
],
  "dcmmeta_shape": [64, 64, 33, 164],
  "dcmmeta_slice_dim": 2,
  "dcmmeta_version": 0.6,
  "global": {
    "const": {
      "AcquisitionMatrix": [64, 0, 0, 64],
      "AngioFlag": "N",
      "BitsAllocated": 16,
      "BitsStored": 12,
      "Columns": 384,
      "EchoNumbers": 1,
      "EchoTime": 30.0,
      "EchoTrainLength": 1,
      "FlipAngle": 90.0,
      "HighBit": 11,
      "ImageOrientationPatient": [0.9991092241627, -0.0209424397059, 0.0366356713079, 0.02092837460781, 0.99978068305962, 0.00076740935045],
      "ImagePositionPatient": [-609.3255823622, -598.09812633296, -82.498443243641],
      "ImageType": [
        "ORIGINAL",
        "PRIMARY",
        "M",
        "ND",
        "MOSAIC"
],
      "ImagedNucleus": "1H",
      "ImagingFrequency": 123.253668,
      "InPlanePhaseEncodingDirection": "COL",
      "MRAcquisitionType": "2D",
      "MagneticFieldStrength": 3.0,
      "Manufacturer": "SIEMENS",
      "ManufacturerModelName": "TrioTim",
      "Modality": "MR",
      "NumberOfAverages": 1.0,
      "NumberOfPhaseEncodingSteps": 64,
      "PercentPhaseFieldOfView": 100.0,
      "PercentSampling": 100.0,
      "PerformedProcedureStepStartTime": "134743.625000",
      "PhotometricInterpretation": "MONOCHROME2",
      "PixelBandwidth": 2520.0,
      "PixelRepresentation": 0,
      "PixelSpacing": [3.125, 3.125],
      "ProtocolName": "ge_func_3x3x4_164",
      "RepetitionTime": 2000.0,
      "Rows": 384,
      "SAR": 0.16067565936163,
      "SamplesPerPixel": 1,
      "ScanOptions": "FS",
      "ScanningSequence": "EP",
      "SequenceName": "*epfid2d1_64",
      "SequenceVariant": "SK",
      "SeriesDescription": "ge_func_3x3x4_164",
      "SeriesNumber": 3,
      "SeriesTime": "135705.218000",
      "SliceLocation": -60.115087693782,
      "SliceThickness": 4.0,
      "SmallestImagePixelValue": 0,
      "SoftwareVersions": "syngo MR B17",
      "SpacingBetweenSlices": 4.6000001035126,
      "SpecificCharacterSet": "ISO_IR 100",
      "StudyID": "1",
      "StudyTime": "134743.578000",
      "TransmitCoilName": "Body",
      "VariableFlipAngleFlag": "N",
      "WindowCenterWidthExplanation": "Algo1",
      "dBdt": 0.0},
    "slices": {}
  },
  "time": {
    "samples": {
      "AcquisitionNumber": [1, 2, 3, 4, 5, 6, 7, 8, 9, 10, 11, 12, 13, 14, 15, 16, 17, 18, 19, 20, 21, 22, 23, 24, 25, 26, 27, 28, 29, 30, 31, 32, 33, 34, 35, 36, 37, 38, 39, 40, 41, 42, 43, 44, 45, 46, 47, 48, 49, 50, 51, 52, 53, 54, 55, 56, 57, 58, 59, 60, 61, 62, 63, 64, 65, 66, 67, 68, 69, 70, 71, 72, 73, 74, 75, 76, 77, 78, 79, 80, 81, 82, 83, 84, 85, 86, 87, 88, 89, 90, 91, 92, 93, 94, 95, 96, 97, 98, 99, 100, 101, 102, 103, 104, 105, 106, 107, 108, 109, 110, 111, 112, 113, 114, 115, 116, 117, 118, 119, 120, 121, 122, 123, 124, 125, 126, 127, 128, 129, 130, 131, 132, 133, 134, 135, 136, 137, 138, 139, 140, 141, 142, 143, 144, 145, 146, 147, 148, 149, 150, 151, 152, 153, 154, 155, 156, 157, 158, 159, 160, 161, 162, 163, 164],
      "AcquisitionTime": ["135612.100000", "135614.107500", "135616.117500", "135618.125000", "135620.132500", "135622.140000", "135624.150000", "135626.157500", "135628.165000", "135630.172500", "135632.180000", "135634.190000", "135636.197500", "135638.205000", "135640.212500", "135642.220000", "135644.230000", "135646.237500", "135648.245000", "135650.252500", "135652.262500", "135654.270000", "135656.277500", "135658.285000", "135700.292500", "135702.302500", "135704.310000", "135706.317500", "135708.325000", "135710.332500", "135712.342500", "135714.350000", "135716.357500", "135718.365000", "135720.372500", "135722.382500", "135724.390000", "135726.397500", "135728.405000", "135730.415000", "135732.422500", "135734.430000", "135736.437500", "135738.445000", "135740.455000", "135742.462500", "135744.470000", "135746.477500", "135748.485000", "135750.495000", "135752.502500", "135754.510000", "135756.517500", "135758.527500", "135800.535000", "135802.542500", "135804.550000", "135806.557500", "135808.567500", "135810.575000", "135812.582500", "135814.590000", "135816.597500", "135818.607500", "135820.615000", "135822.622500", "135824.630000", "135826.640000", "135828.647500", "135830.655000", "135832.662500", "135834.670000", "135836.680000", "135838.687500", "135840.695000", "135842.702500", "135844.710000", "135846.720000", "135848.727500", "135850.735000", "135852.742500", "135854.750000", "135856.760000", "135858.767500", "135900.775000", "135902.782500", "135904.792500", "135906.800000", "135908.807500", "135910.815000", "135912.822500", "135914.832500", "135916.840000", "135918.847500", "135920.855000", "135922.862500", "135924.872500", "135926.880000", "135928.887500", "135930.895000", "135932.905000", "135934.912500", "135936.920000", "135938.927500", "135940.935000", "135942.945000", "135944.952500", "135946.960000", "135948.967500", "135950.975000", "135952.985000", "135954.992500", "135957.000000", "135959.007500", "140001.017500", "140003.025000", "140005.032500", "140007.040000", "140009.047500", "140011.057500", "140013.065000", "140015.072500", "140017.080000", "140019.087500", "140021.097500", "140023.105000", "140025.112500", "140027.120000", "140029.130000", "140031.137500", "140033.145000", "140035.152500", "140037.160000", "140039.170000", "140041.177500", "140043.185000", "140045.192500", "140047.200000", "140049.210000", "140051.217500", "140053.225000", "140055.232500", "140057.240000", "140059.250000", "140101.257500", "140103.265000", "140105.272500", "140107.282500", "140109.290000", "140111.297500", "140113.305000", "140115.312500", "140117.322500", "140119.330000", "140121.337500", "140123.345000", "140125.352500", "140127.362500", "140129.370000", "140131.377500", "140133.385000", "140135.395000", "140137.402500", "140139.410000"],
      "ContentTime": ["135705.234000", "135705.234000", "135705.234000", "135705.234000", "135705.234000", "135705.234000", "135705.234000", "135705.250000", "135705.250000", "135705.250000", "135705.250000", "135705.250000", "135705.250000", "135705.250000", "135705.265000", "135705.265000", "135705.265000", "135705.265000", "135705.265000", "135705.281000", "135705.281000", "135705.281000", "135705.281000", "135705.281000", "135705.281000", "135705.281000", "135745.218000", "135745.218000", "135745.218000", "135745.234000", "135745.234000", "135745.234000", "135745.234000", "135745.234000", "135745.234000", "135745.234000", "135745.234000", "135745.250000", "135745.250000", "135745.250000", "135745.250000", "135745.250000", "135745.250000", "135745.250000", "135745.250000", "135745.265000", "135825.218000", "135825.218000", "135825.218000", "135825.234000", "135825.234000", "135825.234000", "135825.234000", "135825.234000", "135825.234000", "135825.250000", "135825.250000", "135825.250000", "135825.250000", "135825.250000", "135825.265000", "135825.265000", "135825.265000", "135825.265000", "135825.265000", "135825.281000", "135905.218000", "135905.218000", "135905.218000", "135905.234000", "135905.234000", "135905.234000", "135905.234000", "135905.250000", "135905.250000", "135905.250000", "135905.250000", "135905.250000", "135905.265000", "135905.265000", "135905.265000", "135905.265000", "135905.265000", "135905.281000", "135905.281000", "135905.281000", "135925.218000", "135925.218000", "135925.218000", "135925.234000", "135925.234000", "135925.234000", "135925.234000", "135925.234000", "135925.250000", "135925.250000", "140005.218000", "140005.234000", "140005.234000", "140005.234000", "140005.234000", "140005.234000", "140005.234000", "140005.250000", "140005.250000", "140005.250000", "140005.250000", "140005.250000", "140005.250000", "140005.250000", "140005.265000", "140005.265000", "140005.265000", "140005.265000", "140005.265000", "140005.265000", "140045.218000", "140045.218000", "140045.234000", "140045.234000", "140045.234000", "140045.234000", "140045.234000", "140045.250000", "140045.250000", "140045.250000", "140045.250000", "140045.250000", "140045.250000", "140045.250000", "140045.265000", "140045.265000", "140045.265000", "140045.265000", "140045.265000", "140045.265000", "140125.218000", "140125.218000", "140125.234000", "140125.234000", "140125.234000", "140125.234000", "140125.234000", "140125.234000", "140125.234000", "140125.250000", "140125.250000", "140125.250000", "140125.250000", "140125.250000", "140125.250000", "140125.250000", "140125.250000", "140125.265000", "140125.265000", "140125.265000", "140140.765000", "140140.781000", "140140.781000", "140140.781000", "140140.781000", "140140.781000", "140140.781000", "140140.781000"],
      "InstanceCreationTime": ["135705.234000", "135705.234000", "135705.234000", "135705.234000", "135705.234000", "135705.234000", "135705.234000", "135705.250000", "135705.250000", "135705.250000", "135705.250000", "135705.250000", "135705.250000", "135705.250000", "135705.265000", "135705.265000", "135705.265000", "135705.265000", "135705.265000", "135705.281000", "135705.281000", "135705.281000", "135705.281000", "135705.281000", "135705.281000", "135705.281000", "135745.218000", "135745.218000", "135745.218000", "135745.234000", "135745.234000", "135745.234000", "135745.234000", "135745.234000", "135745.234000", "135745.234000", "135745.234000", "135745.250000", "135745.250000", "135745.250000", "135745.250000", "135745.250000", "135745.250000", "135745.250000", "135745.250000", "135745.265000", "135825.218000", "135825.218000", "135825.218000", "135825.234000", "135825.234000", "135825.234000", "135825.234000", "135825.234000", "135825.234000", "135825.250000", "135825.250000", "135825.250000", "135825.250000", "135825.250000", "135825.265000", "135825.265000", "135825.265000", "135825.265000", "135825.265000", "135825.281000", "135905.218000", "135905.218000", "135905.218000", "135905.234000", "135905.234000", "135905.234000", "135905.234000", "135905.250000", "135905.250000", "135905.250000", "135905.250000", "135905.250000", "135905.265000", "135905.265000", "135905.265000", "135905.265000", "135905.265000", "135905.281000", "135905.281000", "135905.281000", "135925.218000", "135925.218000", "135925.218000", "135925.234000", "135925.234000", "135925.234000", "135925.234000", "135925.234000", "135925.250000", "135925.250000", "140005.218000", "140005.234000", "140005.234000", "140005.234000", "140005.234000", "140005.234000", "140005.234000", "140005.250000", "140005.250000", "140005.250000", "140005.250000", "140005.250000", "140005.250000", "140005.250000", "140005.265000", "140005.265000", "140005.265000", "140005.265000", "140005.265000", "140005.265000", "140045.218000", "140045.218000", "140045.234000", "140045.234000", "140045.234000", "140045.234000", "140045.234000", "140045.250000", "140045.250000", "140045.250000", "140045.250000", "140045.250000", "140045.250000", "140045.250000", "140045.265000", "140045.265000", "140045.265000", "140045.265000", "140045.265000", "140045.265000", "140125.218000", "140125.218000", "140125.234000", "140125.234000", "140125.234000", "140125.234000", "140125.234000", "140125.234000", "140125.234000", "140125.250000", "140125.250000", "140125.250000", "140125.250000", "140125.250000", "140125.250000", "140125.250000", "140125.250000", "140125.265000", "140125.265000", "140125.265000", "140140.765000", "140140.781000", "140140.781000", "140140.781000", "140140.781000", "140140.781000", "140140.781000", "140140.781000"],
      "InstanceNumber": [1, 2, 3, 4, 5, 6, 7, 8, 9, 10, 11, 12, 13, 14, 15, 16, 17, 18, 19, 20, 21, 22, 23, 24, 25, 26, 27, 28, 29, 30, 31, 32, 33, 34, 35, 36, 37, 38, 39, 40, 41, 42, 43, 44, 45, 46, 47, 48, 49, 50, 51, 52, 53, 54, 55, 56, 57, 58, 59, 60, 61, 62, 63, 64, 65, 66, 67, 68, 69, 70, 71, 72, 73, 74, 75, 76, 77, 78, 79, 80, 81, 82, 83, 84, 85, 86, 87, 88, 89, 90, 91, 92, 93, 94, 95, 96, 97, 98, 99, 100, 101, 102, 103, 104, 105, 106, 107, 108, 109, 110, 111, 112, 113, 114, 115, 116, 117, 118, 119, 120, 121, 122, 123, 124, 125, 126, 127, 128, 129, 130, 131, 132, 133, 134, 135, 136, 137, 138, 139, 140, 141, 142, 143, 144, 145, 146, 147, 148, 149, 150, 151, 152, 153, 154, 155, 156, 157, 158, 159, 160, 161, 162, 163, 164],
      "LargestImagePixelValue": [1709, 1652, 1641, 1603, 1602, 1615, 1600, 1623, 1614, 1610, 1609, 1607, 1608, 1607, 1607, 1595, 1597, 1608, 1590, 1648, 1588, 1585, 1598, 1604, 1612, 1601, 1605, 1626, 1612, 1606, 1620, 1592, 1606, 1614, 1602, 1620, 1623, 1605, 1594, 1615, 1611, 1599, 1618, 1600, 1607, 1606, 1606, 1598, 1594, 1594, 1595, 1599, 1588, 1603, 1605, 1620, 1630, 1617, 1610, 1627, 1616, 1632, 1621, 1619, 1600, 1608, 1630, 1597, 1602, 1608, 1595, 1592, 1580, 1591, 1592, 1600, 1598, 1605, 1593, 1600, 1613, 1610, 1599, 1615, 1595, 1599, 1605, 1620, 1593, 1615, 1591, 1591, 1590, 1610, 1601, 1608, 1590, 1608, 1615, 1617, 1619, 1616, 1601, 1605, 1604, 1623, 1608, 1609, 1611, 1613, 1618, 1607, 1606, 1626, 1619, 1620, 1621, 1605, 1607, 1611, 1611, 1617, 1614, 1593, 1601, 1584, 1603, 1589, 1582, 1585, 1616, 1596, 1605, 1603, 1603, 1596, 1588, 1612, 1582, 1603, 1605, 1609, 1588, 1596, 1627, 1595, 1603, 1607, 1593, 1596, 1609, 1603, 1614, 1609, 1615, 1599, 1595, 1606, 1600, 1606, 1619, 1601, 1627, 1631],
      "WindowCenter": [693.0, 692.0, 691.0, 690.0, 690.0, 690.0, 690.0, 690.0, 689.0, 690.0, 690.0, 690.0, 690.0, 691.0, 691.0, 691.0, 691.0, 691.0, 691.0, 692.0, 691.0, 691.0, 691.0, 691.0, 691.0, 690.0, 690.0, 691.0, 691.0, 691.0, 692.0, 691.0, 692.0, 691.0, 691.0, 691.0, 691.0, 690.0, 690.0, 691.0, 691.0, 691.0, 691.0, 691.0, 691.0, 691.0, 691.0, 691.0, 691.0, 691.0, 691.0, 692.0, 691.0, 691.0, 691.0, 691.0, 691.0, 691.0, 691.0, 691.0, 691.0, 692.0, 692.0, 692.0, 692.0, 692.0, 692.0, 691.0, 692.0, 691.0, 692.0, 693.0, 692.0, 692.0, 692.0, 692.0, 692.0, 692.0, 691.0, 691.0, 692.0, 692.0, 692.0, 692.0, 692.0, 692.0, 691.0, 691.0, 692.0, 692.0, 692.0, 692.0, 692.0, 692.0, 692.0, 691.0, 691.0, 691.0, 691.0, 691.0, 692.0, 692.0, 692.0, 692.0, 692.0, 691.0, 691.0, 691.0, 691.0, 692.0, 692.0, 691.0, 691.0, 690.0, 690.0, 691.0, 691.0, 692.0, 692.0, 691.0, 691.0, 691.0, 691.0, 692.0, 692.0, 692.0, 692.0, 692.0, 692.0, 692.0, 692.0, 692.0, 692.0, 692.0, 692.0, 692.0, 692.0, 693.0, 693.0, 693.0, 693.0, 693.0, 692.0, 692.0, 691.0, 691.0, 691.0, 690.0, 690.0, 691.0, 691.0, 691.0, 692.0, 691.0, 691.0, 692.0, 692.0, 692.0, 691.0, 691.0, 691.0, 690.0, 691.0, 692.0],
      "WindowWidth": [1499.0, 1496.0, 1494.0, 1493.0, 1491.0, 1492.0, 1491.0, 1491.0, 1490.0, 1490.0, 1492.0, 1492.0, 1493.0, 1495.0, 1495.0, 1494.0, 1495.0, 1494.0, 1494.0, 1498.0, 1495.0, 1494.0, 1495.0, 1495.0, 1494.0, 1493.0, 1493.0, 1495.0, 1494.0, 1496.0, 1496.0, 1496.0, 1497.0, 1496.0, 1494.0, 1494.0, 1494.0, 1492.0, 1493.0, 1495.0, 1495.0, 1495.0, 1496.0, 1495.0, 1496.0, 1496.0, 1495.0, 1495.0, 1496.0, 1495.0, 1496.0, 1497.0, 1496.0, 1495.0, 1495.0, 1495.0, 1496.0, 1495.0, 1495.0, 1495.0, 1494.0, 1498.0, 1497.0, 1497.0, 1497.0, 1497.0, 1497.0, 1496.0, 1497.0, 1496.0, 1498.0, 1499.0, 1497.0, 1499.0, 1498.0, 1498.0, 1497.0, 1497.0, 1496.0, 1496.0, 1497.0, 1497.0, 1497.0, 1498.0, 1497.0, 1496.0, 1495.0, 1496.0, 1496.0, 1498.0, 1499.0, 1498.0, 1498.0, 1499.0, 1498.0, 1496.0, 1495.0, 1496.0, 1495.0, 1496.0, 1497.0, 1498.0, 1499.0, 1497.0, 1497.0, 1495.0, 1496.0, 1495.0, 1496.0, 1497.0, 1497.0, 1495.0, 1494.0, 1493.0, 1492.0, 1494.0, 1496.0, 1498.0, 1497.0, 1496.0, 1495.0, 1494.0, 1494.0, 1497.0, 1497.0, 1497.0, 1499.0, 1497.0, 1497.0, 1497.0, 1498.0, 1497.0, 1498.0, 1499.0, 1498.0, 1498.0, 1499.0, 1500.0, 1500.0, 1500.0, 1501.0, 1500.0, 1498.0, 1497.0, 1496.0, 1495.0, 1495.0, 1493.0, 1493.0, 1494.0, 1495.0, 1495.0, 1496.0, 1496.0, 1495.0, 1496.0, 1497.0, 1497.0, 1496.0, 1496.0, 1495.0, 1493.0, 1495.0, 1498.0]
    },
    "slices": {}
  }
}