{
  "AcquisitionMatrixPE": 64,
  "AcquisitionNumber": 1,
  "AcquisitionTime": "13:49:39.542500",
  "BandwidthPerPixelPhaseEncode": 33.967,
  "BaseResolution": 64,
  "CoilCombinationMethod": "Sum of Squares",
  "CoilString": "C:HEA;HEP",
  "ConversionSoftware": "dcm2niix",
  "ConversionSoftwareVersion": "v1.0.20220720",
  "DerivedVendorReportedEchoSpacing": 0.000460005,
  "DeviceSerialNumber": "35193",
  "DwellTime": 3.1e-06,
  "EchoTime": 0.03,
  "EffectiveEchoSpacing": 0.000460005,
  "FlipAngle": 90,
  "HeudiconvVersion": "1.1.6",
  "ImageOrientationPatientDICOM": [0.999109, -0.0209424, 0.0366357, 0.0209284, 0.999781, 0.000767409],
  "ImageOrientationText": "Tra>Sag(2.1)",
  "ImageType": [
    "ORIGINAL",
    "PRIMARY",
    "M",
    "ND",
    "MOSAIC"
],
  "ImagingFrequency": 123.254,
  "InPlanePhaseEncodingDirectionDICOM": "COL",
  "InstitutionAddress": "Xinjiekouwai Street No 19,Beijing,Haidian District,CN,100875",
  "InstitutionName": "Beijing Normal Universtiy/2773C4/",
  "InstitutionalDepartmentName": "Department",
  "MRAcquisitionType": "2D",
  "MagneticFieldStrength": 3,
  "Manufacturer": "Siemens",
  "ManufacturersModelName": "TrioTim",
  "MatrixCoilMode": "SENSE",
  "Modality": "MR",
  "NonlinearGradientCorrection": false,
  "PartialFourier": 1,
  "PatientPosition": "HFS",
  "PercentPhaseFOV": 100,
  "PercentSampling": 100,
  "PhaseEncodingDirection": "j-",
  "PhaseEncodingSteps": 64,
  "PhaseResolution": 1,
  "PixelBandwidth": 2520,
  "ProcedureStepDescription": "BNU_cst_2015^Guo.TaoMei",
  "ProtocolName": "ge_func_3x3x4_164",
  "PulseSequenceDetails": "%SiemensSeq%\\ep2d_bold",
  "ReceiveCoilName": "HeadMatrix",
  "ReconMatrixPE": 64,
  "RepetitionTime": 2,
  "SAR": 0.160676,
  "ScanOptions": "FS",
  "ScanningSequence": "EP",
  "SequenceName": "*epfid2d1_64",
  "SequenceVariant": "SK",
  "SeriesDescription": "ge_func_3x3x4_164",
  "SeriesNumber": 2,
  "ShimSetting": [-4478, -19516, -9815, 1273, -119, -574, -33, 1],
  "SliceThickness": 4,
  "SliceTiming": [0, 1.0325, 0.06, 1.095, 0.12, 1.155, 0.1825, 1.215, 0.2425, 1.2775, 0.3025, 1.3375, 0.365, 1.3975, 0.425, 1.46, 0.485, 1.52, 0.5475, 1.58, 0.6075, 1.6425, 0.6675, 1.7025, 0.73, 1.7625, 0.79, 1.825, 0.85, 1.885, 0.9125, 1.945, 0.9725],
  "SoftwareVersions": "syngo MR B17",
  "SpacingBetweenSlices": 4.6,
  "StationName": "MRC35193",
  "TaskName": "CognitiveControl",
  "TotalReadoutTime": 0.0289803,
  "TxRefAmp": 322.347,
  "dcmmeta_affine": [
    [-3.12221622467041, 0.06540117412805557, 0.16856105625629425, 95.18650817871094],
    [0.06544512510299683, 3.124314546585083, 3.2549738460119215e-09, -88.15281677246094],
    [0.11448647081851959, -0.0023981542326509953, 4.59691047668457, -63.64582061767578],
    [0.0, 0.0, 0.0, 1.0]
],
  "dcmmeta_reorient_transform": [
    [0.0, -1.0, 0.0, 63.0],
    [1.0, 0.0, 0.0, 0.0],
    [0.0, 0.0, 1.0, 0.0],
    [0.0, 0.0, 0.0, 1.0]
],
  "dcmmeta_shape": [64, 64, 33, 164],
  "dcmmeta_slice_dim": 2,
  "dcmmeta_version": 0.6,
  "global": {
    "const": {
      "AcquisitionMatrix": [64, 0, 0, 64],
      "AngioFlag": "N",
      "BitsAllocated": 16,
      "BitsStored": 12,
      "Columns": 384,
      "EchoNumbers": 1,
      "EchoTime": 30.0,
      "EchoTrainLength": 1,
      "FlipAngle": 90.0,
      "HighBit": 11,
      "ImageOrientationPatient": [0.9991092241627, -0.0209424397059, 0.0366356713079, 0.02092837460781, 0.99978068305962, 0.00076740935045],
      "ImagePositionPatient": [-609.3255823622, -598.09812633296, -82.498443243641],
      "ImageType": [
        "ORIGINAL",
        "PRIMARY",
        "M",
        "ND",
        "MOSAIC"
],
      "ImagedNucleus": "1H",
      "ImagingFrequency": 123.253668,
      "InPlanePhaseEncodingDirection": "COL",
      "MRAcquisitionType": "2D",
      "MagneticFieldStrength": 3.0,
      "Manufacturer": "SIEMENS",
      "ManufacturerModelName": "TrioTim",
      "Modality": "MR",
      "NumberOfAverages": 1.0,
      "NumberOfPhaseEncodingSteps": 64,
      "PercentPhaseFieldOfView": 100.0,
      "PercentSampling": 100.0,
      "PerformedProcedureStepStartTime": "134743.625000",
      "PhotometricInterpretation": "MONOCHROME2",
      "PixelBandwidth": 2520.0,
      "PixelRepresentation": 0,
      "PixelSpacing": [3.125, 3.125],
      "ProtocolName": "ge_func_3x3x4_164",
      "RepetitionTime": 2000.0,
      "Rows": 384,
      "SAR": 0.16067565936163,
      "SamplesPerPixel": 1,
      "ScanOptions": "FS",
      "ScanningSequence": "EP",
      "SequenceName": "*epfid2d1_64",
      "SequenceVariant": "SK",
      "SeriesDescription": "ge_func_3x3x4_164",
      "SeriesNumber": 2,
      "SeriesTime": "135036.765000",
      "SliceLocation": -60.115087693782,
      "SliceThickness": 4.0,
      "SmallestImagePixelValue": 0,
      "SoftwareVersions": "syngo MR B17",
      "SpacingBetweenSlices": 4.6000001035126,
      "SpecificCharacterSet": "ISO_IR 100",
      "StudyID": "1",
      "StudyTime": "134743.578000",
      "TransmitCoilName": "Body",
      "VariableFlipAngleFlag": "N",
      "WindowCenterWidthExplanation": "Algo1",
      "dBdt": 0.0},
    "slices": {}
  },
  "time": {
    "samples": {
      "AcquisitionNumber": [1, 2, 3, 4, 5, 6, 7, 8, 9, 10, 11, 12, 13, 14, 15, 16, 17, 18, 19, 20, 21, 22, 23, 24, 25, 26, 27, 28, 29, 30, 31, 32, 33, 34, 35, 36, 37, 38, 39, 40, 41, 42, 43, 44, 45, 46, 47, 48, 49, 50, 51, 52, 53, 54, 55, 56, 57, 58, 59, 60, 61, 62, 63, 64, 65, 66, 67, 68, 69, 70, 71, 72, 73, 74, 75, 76, 77, 78, 79, 80, 81, 82, 83, 84, 85, 86, 87, 88, 89, 90, 91, 92, 93, 94, 95, 96, 97, 98, 99, 100, 101, 102, 103, 104, 105, 106, 107, 108, 109, 110, 111, 112, 113, 114, 115, 116, 117, 118, 119, 120, 121, 122, 123, 124, 125, 126, 127, 128, 129, 130, 131, 132, 133, 134, 135, 136, 137, 138, 139, 140, 141, 142, 143, 144, 145, 146, 147, 148, 149, 150, 151, 152, 153, 154, 155, 156, 157, 158, 159, 160, 161, 162, 163, 164],
      "AcquisitionTime": ["134939.542500", "134941.550000", "134943.557500", "134945.565000", "134947.572500", "134949.582500", "134951.590000", "134953.597500", "134955.605000", "134957.612500", "134959.622500", "135001.630000", "135003.637500", "135005.645000", "135007.652500", "135009.662500", "135011.670000", "135013.677500", "135015.685000", "135017.695000", "135019.702500", "135021.710000", "135023.717500", "135025.725000", "135027.735000", "135029.742500", "135031.750000", "135033.757500", "135035.765000", "135037.775000", "135039.782500", "135041.790000", "135043.797500", "135045.807500", "135047.815000", "135049.822500", "135051.830000", "135053.837500", "135055.847500", "135057.855000", "135059.862500", "135101.870000", "135103.877500", "135105.887500", "135107.895000", "135109.902500", "135111.910000", "135113.920000", "135115.927500", "135117.935000", "135119.942500", "135121.950000", "135123.960000", "135125.967500", "135127.975000", "135129.982500", "135131.990000", "135134.000000", "135136.007500", "135138.015000", "135140.022500", "135142.030000", "135144.040000", "135146.047500", "135148.055000", "135150.062500", "135152.072500", "135154.080000", "135156.087500", "135158.095000", "135200.102500", "135202.112500", "135204.120000", "135206.127500", "135208.135000", "135210.142500", "135212.152500", "135214.160000", "135216.167500", "135218.175000", "135220.185000", "135222.192500", "135224.200000", "135226.207500", "135228.215000", "135230.225000", "135232.232500", "135234.240000", "135236.247500", "135238.255000", "135240.265000", "135242.272500", "135244.280000", "135246.287500", "135248.297500", "135250.305000", "135252.312500", "135254.320000", "135256.327500", "135258.337500", "135300.345000", "135302.352500", "135304.360000", "135306.367500", "135308.377500", "135310.385000", "135312.392500", "135314.400000", "135316.407500", "135318.417500", "135320.425000", "135322.432500", "135324.440000", "135326.450000", "135328.457500", "135330.465000", "135332.472500", "135334.480000", "135336.490000", "135338.497500", "135340.505000", "135342.512500", "135344.520000", "135346.530000", "135348.537500", "135350.545000", "135352.552500", "135354.562500", "135356.570000", "135358.577500", "135400.585000", "135402.592500", "135404.602500", "135406.610000", "135408.617500", "135410.625000", "135412.632500", "135414.642500", "135416.650000", "135418.657500", "135420.665000", "135422.675000", "135424.682500", "135426.690000", "135428.697500", "135430.705000", "135432.715000", "135434.722500", "135436.730000", "135438.737500", "135440.745000", "135442.755000", "135444.762500", "135446.770000", "135448.777500", "135450.785000", "135452.795000", "135454.802500", "135456.810000", "135458.817500", "135500.827500", "135502.835000", "135504.842500", "135506.850000"],
      "ContentTime": ["135036.781000", "135036.781000", "135036.781000", "135036.781000", "135036.781000", "135036.781000", "135036.796000", "135036.796000", "135036.796000", "135036.796000", "135036.796000", "135036.796000", "135036.796000", "135036.796000", "135036.812000", "135036.812000", "135036.812000", "135036.812000", "135036.812000", "135036.812000", "135036.812000", "135036.828000", "135036.828000", "135036.828000", "135036.828000", "135036.828000", "135036.843000", "135036.843000", "135116.765000", "135116.765000", "135116.765000", "135116.781000", "135116.781000", "135116.781000", "135116.781000", "135116.781000", "135116.781000", "135116.781000", "135116.796000", "135116.796000", "135116.796000", "135116.796000", "135116.796000", "135116.796000", "135116.796000", "135116.812000", "135116.812000", "135116.812000", "135156.765000", "135156.781000", "135156.781000", "135156.781000", "135156.781000", "135156.796000", "135156.796000", "135156.796000", "135156.796000", "135156.796000", "135156.796000", "135156.812000", "135156.812000", "135156.812000", "135156.812000", "135156.812000", "135156.812000", "135156.812000", "135156.812000", "135156.828000", "135236.765000", "135236.765000", "135236.781000", "135236.781000", "135236.781000", "135236.781000", "135236.781000", "135236.781000", "135236.781000", "135236.781000", "135236.781000", "135236.796000", "135236.796000", "135236.796000", "135236.796000", "135236.812000", "135236.812000", "135236.812000", "135236.812000", "135236.812000", "135316.765000", "135316.765000", "135316.765000", "135316.781000", "135316.781000", "135316.781000", "135316.781000", "135316.781000", "135316.796000", "135316.796000", "135316.796000", "135316.796000", "135316.796000", "135316.796000", "135316.796000", "135316.796000", "135316.812000", "135316.812000", "135316.812000", "135316.812000", "135356.765000", "135356.765000", "135356.765000", "135356.781000", "135356.781000", "135356.781000", "135356.796000", "135356.796000", "135356.796000", "135356.796000", "135356.796000", "135356.796000", "135356.812000", "135356.812000", "135356.812000", "135356.812000", "135356.812000", "135356.812000", "135356.812000", "135356.812000", "135436.765000", "135436.765000", "135436.765000", "135436.781000", "135436.781000", "135436.781000", "135436.781000", "135436.781000", "135436.781000", "135436.781000", "135436.796000", "135436.796000", "135436.796000", "135436.796000", "135436.796000", "135436.796000", "135436.796000", "135436.796000", "135436.812000", "135436.812000", "135508.218000", "135508.218000", "135508.218000", "135508.218000", "135508.218000", "135508.218000", "135508.218000", "135508.234000", "135508.234000", "135508.234000", "135508.234000", "135508.234000", "135508.234000", "135508.234000", "135508.234000", "135508.250000"],
      "InstanceCreationTime": ["135036.781000", "135036.781000", "135036.781000", "135036.781000", "135036.781000", "135036.781000", "135036.796000", "135036.796000", "135036.796000", "135036.796000", "135036.796000", "135036.796000", "135036.796000", "135036.796000", "135036.812000", "135036.812000", "135036.812000", "135036.812000", "135036.812000", "135036.812000", "135036.812000", "135036.828000", "135036.828000", "135036.828000", "135036.828000", "135036.828000", "135036.843000", "135036.843000", "135116.765000", "135116.765000", "135116.765000", "135116.781000", "135116.781000", "135116.781000", "135116.781000", "135116.781000", "135116.781000", "135116.781000", "135116.796000", "135116.796000", "135116.796000", "135116.796000", "135116.796000", "135116.796000", "135116.796000", "135116.812000", "135116.812000", "135116.812000", "135156.765000", "135156.781000", "135156.781000", "135156.781000", "135156.781000", "135156.796000", "135156.796000", "135156.796000", "135156.796000", "135156.796000", "135156.796000", "135156.812000", "135156.812000", "135156.812000", "135156.812000", "135156.812000", "135156.812000", "135156.812000", "135156.812000", "135156.828000", "135236.765000", "135236.765000", "135236.781000", "135236.781000", "135236.781000", "135236.781000", "135236.781000", "135236.781000", "135236.781000", "135236.781000", "135236.781000", "135236.796000", "135236.796000", "135236.796000", "135236.796000", "135236.812000", "135236.812000", "135236.812000", "135236.812000", "135236.812000", "135316.765000", "135316.765000", "135316.765000", "135316.781000", "135316.781000", "135316.781000", "135316.781000", "135316.781000", "135316.796000", "135316.796000", "135316.796000", "135316.796000", "135316.796000", "135316.796000", "135316.796000", "135316.796000", "135316.812000", "135316.812000", "135316.812000", "135316.812000", "135356.765000", "135356.765000", "135356.765000", "135356.781000", "135356.781000", "135356.781000", "135356.796000", "135356.796000", "135356.796000", "135356.796000", "135356.796000", "135356.796000", "135356.812000", "135356.812000", "135356.812000", "135356.812000", "135356.812000", "135356.812000", "135356.812000", "135356.812000", "135436.765000", "135436.765000", "135436.765000", "135436.781000", "135436.781000", "135436.781000", "135436.781000", "135436.781000", "135436.781000", "135436.781000", "135436.796000", "135436.796000", "135436.796000", "135436.796000", "135436.796000", "135436.796000", "135436.796000", "135436.796000", "135436.812000", "135436.812000", "135508.218000", "135508.218000", "135508.218000", "135508.218000", "135508.218000", "135508.218000", "135508.218000", "135508.234000", "135508.234000", "135508.234000", "135508.234000", "135508.234000", "135508.234000", "135508.234000", "135508.234000", "135508.250000"],
      "InstanceNumber": [1, 2, 3, 4, 5, 6, 7, 8, 9, 10, 11, 12, 13, 14, 15, 16, 17, 18, 19, 20, 21, 22, 23, 24, 25, 26, 27, 28, 29, 30, 31, 32, 33, 34, 35, 36, 37, 38, 39, 40, 41, 42, 43, 44, 45, 46, 47, 48, 49, 50, 51, 52, 53, 54, 55, 56, 57, 58, 59, 60, 61, 62, 63, 64, 65, 66, 67, 68, 69, 70, 71, 72, 73, 74, 75, 76, 77, 78, 79, 80, 81, 82, 83, 84, 85, 86, 87, 88, 89, 90, 91, 92, 93, 94, 95, 96, 97, 98, 99, 100, 101, 102, 103, 104, 105, 106, 107, 108, 109, 110, 111, 112, 113, 114, 115, 116, 117, 118, 119, 120, 121, 122, 123, 124, 125, 126, 127, 128, 129, 130, 131, 132, 133, 134, 135, 136, 137, 138, 139, 140, 141, 142, 143, 144, 145, 146, 147, 148, 149, 150, 151, 152, 153, 154, 155, 156, 157, 158, 159, 160, 161, 162, 163, 164],
      "LargestImagePixelValue": [1712, 1619, 1597, 1581, 1582, 1581, 1591, 1584, 1571, 1593, 1598, 1591, 1603, 1595, 1593, 1596, 1582, 1576, 1600, 1583, 1581, 1581, 1583, 1596, 1592, 1594, 1590, 1597, 1595, 1594, 1602, 1594, 1594, 1579, 1586, 1580, 1566, 1594, 1589, 1595, 1590, 1593, 1594, 1587, 1581, 1595, 1593, 1596, 1603, 1594, 1604, 1594, 1594, 1592, 1617, 1590, 1593, 1606, 1598, 1589, 1601, 1597, 1592, 1600, 1595, 1599, 1611, 1597, 1590, 1590, 1611, 1603, 1593, 1610, 1607, 1597, 1595, 1594, 1578, 1594, 1603, 1609, 1602, 1590, 1596, 1594, 1607, 1612, 1604, 1593, 1597, 1610, 1616, 1601, 1605, 1621, 1606, 1602, 1600, 1599, 1590, 1585, 1594, 1596, 1595, 1601, 1598, 1591, 1611, 1620, 1614, 1589, 1620, 1624, 1609, 1621, 1603, 1612, 1619, 1625, 1615, 1634, 1618, 1618, 1618, 1629, 1610, 1619, 1613, 1612, 1620, 1606, 1621, 1612, 1625, 1607, 1619, 1628, 1608, 1691, 1627, 1620, 1610, 1610, 1598, 1604, 1605, 1601, 1604, 1621, 1610, 1625, 1617, 1622, 1627, 1610, 1611, 1620, 1606, 1616, 1623, 1609, 1622, 1606],
      "WindowCenter": [694.0, 692.0, 692.0, 691.0, 691.0, 690.0, 690.0, 690.0, 690.0, 691.0, 691.0, 691.0, 690.0, 690.0, 691.0, 692.0, 692.0, 692.0, 693.0, 693.0, 692.0, 692.0, 692.0, 693.0, 692.0, 692.0, 692.0, 691.0, 691.0, 692.0, 692.0, 692.0, 692.0, 692.0, 692.0, 692.0, 692.0, 692.0, 692.0, 692.0, 693.0, 693.0, 693.0, 693.0, 693.0, 692.0, 692.0, 692.0, 691.0, 692.0, 692.0, 692.0, 692.0, 692.0, 692.0, 692.0, 692.0, 692.0, 692.0, 692.0, 692.0, 692.0, 692.0, 692.0, 691.0, 691.0, 693.0, 693.0, 692.0, 693.0, 692.0, 692.0, 692.0, 692.0, 692.0, 692.0, 693.0, 693.0, 693.0, 693.0, 693.0, 692.0, 692.0, 692.0, 692.0, 692.0, 692.0, 691.0, 692.0, 692.0, 692.0, 692.0, 691.0, 691.0, 691.0, 692.0, 692.0, 693.0, 693.0, 692.0, 692.0, 692.0, 692.0, 692.0, 693.0, 693.0, 693.0, 693.0, 692.0, 692.0, 692.0, 692.0, 692.0, 691.0, 691.0, 691.0, 691.0, 691.0, 691.0, 691.0, 691.0, 692.0, 691.0, 691.0, 691.0, 691.0, 691.0, 692.0, 692.0, 692.0, 692.0, 692.0, 692.0, 692.0, 692.0, 692.0, 692.0, 691.0, 691.0, 692.0, 691.0, 692.0, 692.0, 693.0, 692.0, 691.0, 691.0, 691.0, 691.0, 691.0, 691.0, 691.0, 690.0, 691.0, 691.0, 692.0, 692.0, 692.0, 692.0, 692.0, 692.0, 692.0, 693.0, 693.0],
      "WindowWidth": [1504.0, 1497.0, 1497.0, 1496.0, 1494.0, 1492.0, 1492.0, 1492.0, 1493.0, 1495.0, 1494.0, 1494.0, 1493.0, 1493.0, 1495.0, 1497.0, 1497.0, 1499.0, 1500.0, 1499.0, 1498.0, 1498.0, 1498.0, 1499.0, 1498.0, 1499.0, 1497.0, 1496.0, 1496.0, 1498.0, 1498.0, 1498.0, 1497.0, 1497.0, 1497.0, 1498.0, 1498.0, 1498.0, 1498.0, 1497.0, 1499.0, 1500.0, 1502.0, 1500.0, 1499.0, 1499.0, 1499.0, 1497.0, 1496.0, 1498.0, 1498.0, 1497.0, 1496.0, 1498.0, 1498.0, 1497.0, 1498.0, 1498.0, 1497.0, 1496.0, 1498.0, 1497.0, 1498.0, 1497.0, 1496.0, 1496.0, 1499.0, 1500.0, 1499.0, 1499.0, 1498.0, 1496.0, 1497.0, 1498.0, 1498.0, 1499.0, 1500.0, 1502.0, 1499.0, 1501.0, 1499.0, 1498.0, 1497.0, 1498.0, 1498.0, 1497.0, 1496.0, 1496.0, 1497.0, 1497.0, 1497.0, 1497.0, 1496.0, 1495.0, 1495.0, 1497.0, 1496.0, 1500.0, 1499.0, 1498.0, 1498.0, 1497.0, 1497.0, 1498.0, 1499.0, 1501.0, 1500.0, 1500.0, 1498.0, 1497.0, 1497.0, 1496.0, 1496.0, 1496.0, 1495.0, 1495.0, 1493.0, 1495.0, 1495.0, 1495.0, 1496.0, 1497.0, 1495.0, 1495.0, 1495.0, 1495.0, 1495.0, 1497.0, 1497.0, 1499.0, 1498.0, 1497.0, 1497.0, 1497.0, 1497.0, 1496.0, 1496.0, 1495.0, 1494.0, 1497.0, 1496.0, 1496.0, 1497.0, 1499.0, 1499.0, 1496.0, 1495.0, 1495.0, 1494.0, 1495.0, 1495.0, 1494.0, 1493.0, 1494.0, 1496.0, 1497.0, 1498.0, 1498.0, 1496.0, 1497.0, 1497.0, 1496.0, 1500.0, 1500.0]
    },
    "slices": {}
  }
}