{
  "AcquisitionMatrixPE": 64,
  "AcquisitionNumber": 1,
  "AcquisitionTime": "14:25:45.390000",
  "BandwidthPerPixelPhaseEncode": 33.967,
  "BaseResolution": 64,
  "CoilCombinationMethod": "Sum of Squares",
  "CoilString": "C:HEA;HEP",
  "ConversionSoftware": "dcm2niix",
  "ConversionSoftwareVersion": "v1.0.20220720",
  "DerivedVendorReportedEchoSpacing": 0.000460005,
  "DeviceSerialNumber": "35193",
  "DwellTime": 3.1e-06,
  "EchoTime": 0.03,
  "EffectiveEchoSpacing": 0.000460005,
  "FlipAngle": 90,
  "HeudiconvVersion": "1.1.6",
  "ImageOrientationPatientDICOM": [0.9975, -0.0191975, 0.0680028, 0.019153, 0.999816, 0.00130572],
  "ImageOrientationText": "Tra>Sag(3.9)",
  "ImageType": [
    "ORIGINAL",
    "PRIMARY",
    "M",
    "ND",
    "MOSAIC"
],
  "ImagingFrequency": 123.254,
  "InPlanePhaseEncodingDirectionDICOM": "COL",
  "InstitutionAddress": "Xinjiekouwai Street No 19,Beijing,Haidian District,CN,100875",
  "InstitutionName": "Beijing Normal Universtiy/2773C4/",
  "InstitutionalDepartmentName": "Department",
  "MRAcquisitionType": "2D",
  "MagneticFieldStrength": 3,
  "Manufacturer": "Siemens",
  "ManufacturersModelName": "TrioTim",
  "MatrixCoilMode": "SENSE",
  "Modality": "MR",
  "NonlinearGradientCorrection": false,
  "PartialFourier": 1,
  "PatientPosition": "HFS",
  "PercentPhaseFOV": 100,
  "PercentSampling": 100,
  "PhaseEncodingDirection": "j-",
  "PhaseEncodingSteps": 64,
  "PhaseResolution": 1,
  "PixelBandwidth": 2520,
  "ProcedureStepDescription": "BNU_cst_2015^Guo.TaoMei",
  "ProtocolName": "ge_func_3x3x4_164",
  "PulseSequenceDetails": "%SiemensSeq%\\ep2d_bold",
  "ReceiveCoilName": "HeadMatrix",
  "ReconMatrixPE": 64,
  "RepetitionTime": 2,
  "SAR": 0.156162,
  "ScanOptions": "FS",
  "ScanningSequence": "EP",
  "SequenceName": "*epfid2d1_64",
  "SequenceVariant": "SK",
  "SeriesDescription": "ge_func_3x3x4_164",
  "SeriesNumber": 2,
  "ShimSetting": [-4422, -19421, -9852, 913, -69, -389, 82, -190],
  "SliceThickness": 4,
  "SliceTiming": [0, 1.035, 0.0625, 1.095, 0.1225, 1.1575, 0.1825, 1.2175, 0.245, 1.2775, 0.305, 1.34, 0.365, 1.4, 0.4275, 1.46, 0.4875, 1.5225, 0.5475, 1.5825, 0.61, 1.6425, 0.67, 1.705, 0.73, 1.765, 0.7925, 1.825, 0.8525, 1.8875, 0.9125, 1.9475, 0.975],
  "SoftwareVersions": "syngo MR B17",
  "SpacingBetweenSlices": 4.6,
  "StationName": "MRC35193",
  "TaskName": "CognitiveControl",
  "TotalReadoutTime": 0.0289803,
  "TxRefAmp": 339.687,
  "dcmmeta_affine": [
    [-3.1171886920928955, 0.059853266924619675, 0.3128703236579895, 92.88866424560547],
    [0.059992190450429916, 3.1244239807128906, -8.93806806345765e-09, -89.33111572265625],
    [0.21250860393047333, -0.004080380313098431, 4.589347839355469, -64.58527374267578],
    [0.0, 0.0, 0.0, 1.0]
],
  "dcmmeta_reorient_transform": [
    [0.0, -1.0, 0.0, 63.0],
    [1.0, 0.0, 0.0, 0.0],
    [0.0, 0.0, 1.0, 0.0],
    [0.0, 0.0, 0.0, 1.0]
],
  "dcmmeta_shape": [64, 64, 33, 164],
  "dcmmeta_slice_dim": 2,
  "dcmmeta_version": 0.6,
  "global": {
    "const": {
      "AcquisitionMatrix": [64, 0, 0, 64],
      "AngioFlag": "N",
      "BitsAllocated": 16,
      "BitsStored": 12,
      "Columns": 384,
      "EchoNumbers": 1,
      "EchoTime": 30.0,
      "EchoTrainLength": 1,
      "FlipAngle": 90.0,
      "HighBit": 11,
      "ImageOrientationPatient": [0.99750041675186, -0.0191975015336, 0.06800275372906, 0.01915304560839, 0.99981571098621, 0.0013057216606],
      "ImagePositionPatient": [-604.98615223762, -597.81670833302, -99.496576627841],
      "ImageType": [
        "ORIGINAL",
        "PRIMARY",
        "M",
        "ND",
        "MOSAIC"
],
      "ImagedNucleus": "1H",
      "ImagingFrequency": 123.253666,
      "InPlanePhaseEncodingDirection": "COL",
      "MRAcquisitionType": "2D",
      "MagneticFieldStrength": 3.0,
      "Manufacturer": "SIEMENS",
      "ManufacturerModelName": "TrioTim",
      "Modality": "MR",
      "NumberOfAverages": 1.0,
      "NumberOfPhaseEncodingSteps": 64,
      "PercentPhaseFieldOfView": 100.0,
      "PercentSampling": 100.0,
      "PerformedProcedureStepStartTime": "142247.640000",
      "PhotometricInterpretation": "MONOCHROME2",
      "PixelBandwidth": 2520.0,
      "PixelRepresentation": 0,
      "PixelSpacing": [3.125, 3.125],
      "ProtocolName": "ge_func_3x3x4_164",
      "RepetitionTime": 2000.0,
      "Rows": 384,
      "SAR": 0.15616157851402,
      "SamplesPerPixel": 1,
      "ScanOptions": "FS",
      "ScanningSequence": "EP",
      "SequenceName": "*epfid2d1_64",
      "SequenceVariant": "SK",
      "SeriesDescription": "ge_func_3x3x4_164",
      "SeriesNumber": 2,
      "SeriesTime": "142642.125000",
      "SliceLocation": -58.117863999532,
      "SliceThickness": 4.0,
      "SmallestImagePixelValue": 0,
      "SoftwareVersions": "syngo MR B17",
      "SpacingBetweenSlices": 4.5999999175708,
      "SpecificCharacterSet": "ISO_IR 100",
      "StudyID": "1",
      "StudyTime": "142247.593000",
      "TransmitCoilName": "Body",
      "VariableFlipAngleFlag": "N",
      "WindowCenterWidthExplanation": "Algo1",
      "dBdt": 0.0},
    "slices": {}
  },
  "time": {
    "samples": {
      "AcquisitionNumber": [1, 2, 3, 4, 5, 6, 7, 8, 9, 10, 11, 12, 13, 14, 15, 16, 17, 18, 19, 20, 21, 22, 23, 24, 25, 26, 27, 28, 29, 30, 31, 32, 33, 34, 35, 36, 37, 38, 39, 40, 41, 42, 43, 44, 45, 46, 47, 48, 49, 50, 51, 52, 53, 54, 55, 56, 57, 58, 59, 60, 61, 62, 63, 64, 65, 66, 67, 68, 69, 70, 71, 72, 73, 74, 75, 76, 77, 78, 79, 80, 81, 82, 83, 84, 85, 86, 87, 88, 89, 90, 91, 92, 93, 94, 95, 96, 97, 98, 99, 100, 101, 102, 103, 104, 105, 106, 107, 108, 109, 110, 111, 112, 113, 114, 115, 116, 117, 118, 119, 120, 121, 122, 123, 124, 125, 126, 127, 128, 129, 130, 131, 132, 133, 134, 135, 136, 137, 138, 139, 140, 141, 142, 143, 144, 145, 146, 147, 148, 149, 150, 151, 152, 153, 154, 155, 156, 157, 158, 159, 160, 161, 162, 163, 164],
      "AcquisitionTime": ["142545.390000", "142547.400000", "142549.407500", "142551.415000", "142553.422500", "142555.430000", "142557.440000", "142559.447500", "142601.455000", "142603.462500", "142605.470000", "142607.480000", "142609.487500", "142611.495000", "142613.502500", "142615.512500", "142617.520000", "142619.527500", "142621.535000", "142623.542500", "142625.552500", "142627.560000", "142629.567500", "142631.575000", "142633.582500", "142635.592500", "142637.600000", "142639.607500", "142641.615000", "142643.622500", "142645.632500", "142647.640000", "142649.647500", "142651.655000", "142653.665000", "142655.672500", "142657.680000", "142659.687500", "142701.695000", "142703.705000", "142705.712500", "142707.720000", "142709.727500", "142711.735000", "142713.745000", "142715.752500", "142717.760000", "142719.767500", "142721.777500", "142723.785000", "142725.792500", "142727.800000", "142729.807500", "142731.817500", "142733.825000", "142735.832500", "142737.840000", "142739.847500", "142741.857500", "142743.865000", "142745.872500", "142747.880000", "142749.890000", "142751.897500", "142753.905000", "142755.912500", "142757.920000", "142759.930000", "142801.937500", "142803.945000", "142805.952500", "142807.960000", "142809.970000", "142811.977500", "142813.985000", "142815.992500", "142818.000000", "142820.010000", "142822.017500", "142824.025000", "142826.032500", "142828.042500", "142830.050000", "142832.057500", "142834.065000", "142836.072500", "142838.082500", "142840.090000", "142842.097500", "142844.105000", "142846.112500", "142848.122500", "142850.130000", "142852.137500", "142854.145000", "142856.155000", "142858.162500", "142900.170000", "142902.177500", "142904.185000", "142906.195000", "142908.202500", "142910.210000", "142912.217500", "142914.225000", "142916.235000", "142918.242500", "142920.250000", "142922.257500", "142924.267500", "142926.275000", "142928.282500", "142930.290000", "142932.297500", "142934.307500", "142936.315000", "142938.322500", "142940.330000", "142942.337500", "142944.347500", "142946.355000", "142948.362500", "142950.370000", "142952.377500", "142954.387500", "142956.395000", "142958.402500", "143000.410000", "143002.420000", "143004.427500", "143006.435000", "143008.442500", "143010.450000", "143012.460000", "143014.467500", "143016.475000", "143018.482500", "143020.490000", "143022.500000", "143024.507500", "143026.515000", "143028.522500", "143030.532500", "143032.540000", "143034.547500", "143036.555000", "143038.562500", "143040.572500", "143042.580000", "143044.587500", "143046.595000", "143048.602500", "143050.612500", "143052.620000", "143054.627500", "143056.635000", "143058.645000", "143100.652500", "143102.660000", "143104.667500", "143106.675000", "143108.685000", "143110.692500", "143112.700000"],
      "ContentTime": ["142642.125000", "142642.125000", "142642.140000", "142642.140000", "142642.140000", "142642.140000", "142642.140000", "142642.140000", "142642.140000", "142642.140000", "142642.156000", "142642.156000", "142642.156000", "142642.156000", "142642.156000", "142642.156000", "142642.156000", "142642.156000", "142642.171000", "142642.171000", "142642.171000", "142642.171000", "142642.171000", "142642.187000", "142642.187000", "142642.187000", "142642.187000", "142722.125000", "142722.125000", "142722.125000", "142722.125000", "142722.140000", "142722.140000", "142722.140000", "142722.140000", "142722.140000", "142722.140000", "142722.140000", "142722.140000", "142722.156000", "142722.156000", "142722.156000", "142722.156000", "142722.171000", "142722.171000", "142722.171000", "142722.171000", "142802.125000", "142802.125000", "142802.125000", "142802.125000", "142802.125000", "142802.140000", "142802.140000", "142802.156000", "142802.156000", "142802.156000", "142802.156000", "142802.171000", "142802.171000", "142802.171000", "142802.171000", "142802.171000", "142802.171000", "142802.171000", "142802.187000", "142802.187000", "142842.125000", "142842.125000", "142842.125000", "142842.125000", "142842.125000", "142842.125000", "142842.140000", "142842.140000", "142842.140000", "142842.140000", "142842.140000", "142842.140000", "142842.140000", "142842.140000", "142842.156000", "142842.156000", "142842.156000", "142842.156000", "142842.156000", "142842.156000", "142922.125000", "142922.125000", "142922.125000", "142922.125000", "142922.125000", "142922.140000", "142922.140000", "142922.140000", "142922.140000", "142922.140000", "142922.140000", "142922.156000", "142922.156000", "142922.156000", "142922.156000", "142922.156000", "142922.156000", "142922.156000", "142922.156000", "142922.171000", "143002.125000", "143002.125000", "143002.125000", "143002.125000", "143002.125000", "143002.125000", "143002.140000", "143002.140000", "143002.140000", "143002.140000", "143002.140000", "143002.140000", "143002.140000", "143002.140000", "143002.156000", "143002.156000", "143002.156000", "143002.156000", "143002.156000", "143002.156000", "143042.125000", "143042.125000", "143042.125000", "143042.140000", "143042.140000", "143042.140000", "143042.140000", "143042.140000", "143042.140000", "143042.156000", "143042.156000", "143042.156000", "143042.156000", "143042.156000", "143042.156000", "143042.156000", "143042.156000", "143042.171000", "143042.171000", "143042.171000", "143114.734000", "143114.734000", "143114.734000", "143114.734000", "143114.734000", "143114.750000", "143114.750000", "143114.750000", "143114.750000", "143114.750000", "143114.750000", "143114.750000", "143114.750000", "143114.765000", "143114.765000", "143114.765000", "143114.765000"],
      "InstanceCreationTime": ["142642.125000", "142642.125000", "142642.140000", "142642.140000", "142642.140000", "142642.140000", "142642.140000", "142642.140000", "142642.140000", "142642.140000", "142642.156000", "142642.156000", "142642.156000", "142642.156000", "142642.156000", "142642.156000", "142642.156000", "142642.156000", "142642.171000", "142642.171000", "142642.171000", "142642.171000", "142642.171000", "142642.187000", "142642.187000", "142642.187000", "142642.187000", "142722.125000", "142722.125000", "142722.125000", "142722.125000", "142722.140000", "142722.140000", "142722.140000", "142722.140000", "142722.140000", "142722.140000", "142722.140000", "142722.140000", "142722.156000", "142722.156000", "142722.156000", "142722.156000", "142722.171000", "142722.171000", "142722.171000", "142722.171000", "142802.125000", "142802.125000", "142802.125000", "142802.125000", "142802.125000", "142802.140000", "142802.140000", "142802.156000", "142802.156000", "142802.156000", "142802.156000", "142802.171000", "142802.171000", "142802.171000", "142802.171000", "142802.171000", "142802.171000", "142802.171000", "142802.187000", "142802.187000", "142842.125000", "142842.125000", "142842.125000", "142842.125000", "142842.125000", "142842.125000", "142842.140000", "142842.140000", "142842.140000", "142842.140000", "142842.140000", "142842.140000", "142842.140000", "142842.140000", "142842.156000", "142842.156000", "142842.156000", "142842.156000", "142842.156000", "142842.156000", "142922.125000", "142922.125000", "142922.125000", "142922.125000", "142922.125000", "142922.140000", "142922.140000", "142922.140000", "142922.140000", "142922.140000", "142922.140000", "142922.156000", "142922.156000", "142922.156000", "142922.156000", "142922.156000", "142922.156000", "142922.156000", "142922.156000", "142922.171000", "143002.125000", "143002.125000", "143002.125000", "143002.125000", "143002.125000", "143002.125000", "143002.140000", "143002.140000", "143002.140000", "143002.140000", "143002.140000", "143002.140000", "143002.140000", "143002.140000", "143002.156000", "143002.156000", "143002.156000", "143002.156000", "143002.156000", "143002.156000", "143042.125000", "143042.125000", "143042.125000", "143042.140000", "143042.140000", "143042.140000", "143042.140000", "143042.140000", "143042.140000", "143042.156000", "143042.156000", "143042.156000", "143042.156000", "143042.156000", "143042.156000", "143042.156000", "143042.156000", "143042.171000", "143042.171000", "143042.171000", "143114.734000", "143114.734000", "143114.734000", "143114.734000", "143114.734000", "143114.750000", "143114.750000", "143114.750000", "143114.750000", "143114.750000", "143114.750000", "143114.750000", "143114.750000", "143114.765000", "143114.765000", "143114.765000", "143114.765000"],
      "InstanceNumber": [1, 2, 3, 4, 5, 6, 7, 8, 9, 10, 11, 12, 13, 14, 15, 16, 17, 18, 19, 20, 21, 22, 23, 24, 25, 26, 27, 28, 29, 30, 31, 32, 33, 34, 35, 36, 37, 38, 39, 40, 41, 42, 43, 44, 45, 46, 47, 48, 49, 50, 51, 52, 53, 54, 55, 56, 57, 58, 59, 60, 61, 62, 63, 64, 65, 66, 67, 68, 69, 70, 71, 72, 73, 74, 75, 76, 77, 78, 79, 80, 81, 82, 83, 84, 85, 86, 87, 88, 89, 90, 91, 92, 93, 94, 95, 96, 97, 98, 99, 100, 101, 102, 103, 104, 105, 106, 107, 108, 109, 110, 111, 112, 113, 114, 115, 116, 117, 118, 119, 120, 121, 122, 123, 124, 125, 126, 127, 128, 129, 130, 131, 132, 133, 134, 135, 136, 137, 138, 139, 140, 141, 142, 143, 144, 145, 146, 147, 148, 149, 150, 151, 152, 153, 154, 155, 156, 157, 158, 159, 160, 161, 162, 163, 164],
      "LargestImagePixelValue": [1952, 1850, 1815, 1815, 1812, 1802, 1813, 1794, 1821, 1804, 1820, 1803, 1811, 1805, 1818, 1813, 1811, 1793, 1812, 1818, 1823, 1844, 1818, 1813, 1814, 1800, 1813, 1801, 1804, 1801, 1808, 1825, 1810, 1820, 1814, 1813, 1824, 1812, 1817, 1819, 1805, 1813, 1818, 1797, 1806, 1804, 1811, 1814, 1810, 1800, 1813, 1807, 1815, 1825, 1816, 1810, 1817, 1820, 1828, 1828, 1778, 1808, 1805, 1804, 1800, 1812, 1795, 1799, 1815, 1803, 1816, 1802, 1810, 1812, 1807, 1813, 1799, 1823, 1811, 1816, 1825, 1826, 1827, 1835, 1841, 1828, 1798, 1837, 1865, 1846, 1844, 1836, 1826, 1844, 1827, 1858, 1853, 1824, 1837, 1842, 1870, 1877, 1843, 1839, 1807, 1819, 1818, 1812, 1817, 1793, 1809, 1811, 1816, 1840, 1823, 1851, 1853, 1854, 1854, 1849, 1852, 1837, 1848, 1848, 1809, 1818, 1812, 1815, 1835, 1829, 1826, 1852, 1856, 1832, 1848, 1817, 1829, 1816, 1844, 1865, 1848, 1863, 1866, 1889, 1853, 1838, 1821, 1842, 1828, 1829, 1828, 1829, 1821, 1831, 1841, 1836, 1840, 1826, 1854, 1823, 1835, 1841, 1839, 1835],
      "WindowCenter": [742.0, 739.0, 740.0, 740.0, 740.0, 739.0, 739.0, 739.0, 739.0, 739.0, 739.0, 739.0, 739.0, 739.0, 739.0, 739.0, 740.0, 739.0, 740.0, 741.0, 741.0, 741.0, 740.0, 740.0, 740.0, 740.0, 739.0, 739.0, 740.0, 740.0, 740.0, 740.0, 739.0, 740.0, 740.0, 740.0, 739.0, 739.0, 740.0, 741.0, 740.0, 739.0, 739.0, 738.0, 740.0, 740.0, 741.0, 741.0, 741.0, 741.0, 740.0, 741.0, 741.0, 742.0, 741.0, 741.0, 740.0, 741.0, 741.0, 741.0, 739.0, 739.0, 739.0, 739.0, 739.0, 740.0, 739.0, 739.0, 739.0, 740.0, 740.0, 740.0, 740.0, 741.0, 741.0, 741.0, 740.0, 739.0, 739.0, 739.0, 740.0, 740.0, 741.0, 741.0, 741.0, 741.0, 741.0, 742.0, 742.0, 742.0, 741.0, 741.0, 742.0, 742.0, 741.0, 742.0, 742.0, 742.0, 741.0, 741.0, 741.0, 741.0, 741.0, 742.0, 741.0, 741.0, 740.0, 741.0, 741.0, 740.0, 740.0, 740.0, 741.0, 741.0, 742.0, 743.0, 743.0, 743.0, 742.0, 741.0, 742.0, 741.0, 742.0, 742.0, 742.0, 742.0, 742.0, 742.0, 742.0, 742.0, 741.0, 741.0, 741.0, 742.0, 741.0, 741.0, 740.0, 741.0, 741.0, 741.0, 741.0, 741.0, 741.0, 742.0, 742.0, 741.0, 741.0, 741.0, 741.0, 742.0, 742.0, 741.0, 741.0, 741.0, 742.0, 741.0, 741.0, 741.0, 742.0, 741.0, 741.0, 741.0, 741.0, 741.0],
      "WindowWidth": [1596.0, 1588.0, 1591.0, 1591.0, 1590.0, 1588.0, 1588.0, 1587.0, 1586.0, 1587.0, 1587.0, 1587.0, 1587.0, 1588.0, 1588.0, 1588.0, 1588.0, 1588.0, 1590.0, 1593.0, 1592.0, 1592.0, 1590.0, 1589.0, 1589.0, 1588.0, 1588.0, 1587.0, 1589.0, 1590.0, 1589.0, 1589.0, 1588.0, 1589.0, 1589.0, 1589.0, 1588.0, 1588.0, 1589.0, 1591.0, 1589.0, 1587.0, 1587.0, 1585.0, 1589.0, 1590.0, 1591.0, 1591.0, 1591.0, 1591.0, 1591.0, 1591.0, 1592.0, 1595.0, 1593.0, 1591.0, 1591.0, 1592.0, 1592.0, 1591.0, 1588.0, 1588.0, 1588.0, 1588.0, 1588.0, 1589.0, 1588.0, 1588.0, 1588.0, 1590.0, 1590.0, 1590.0, 1590.0, 1591.0, 1593.0, 1593.0, 1591.0, 1588.0, 1587.0, 1587.0, 1590.0, 1591.0, 1593.0, 1594.0, 1593.0, 1593.0, 1593.0, 1596.0, 1596.0, 1594.0, 1593.0, 1593.0, 1594.0, 1594.0, 1593.0, 1594.0, 1594.0, 1594.0, 1593.0, 1593.0, 1592.0, 1592.0, 1593.0, 1594.0, 1592.0, 1591.0, 1590.0, 1592.0, 1591.0, 1589.0, 1589.0, 1590.0, 1591.0, 1591.0, 1594.0, 1598.0, 1598.0, 1596.0, 1594.0, 1593.0, 1594.0, 1593.0, 1595.0, 1595.0, 1594.0, 1593.0, 1595.0, 1595.0, 1594.0, 1594.0, 1592.0, 1593.0, 1593.0, 1594.0, 1593.0, 1591.0, 1590.0, 1591.0, 1592.0, 1592.0, 1591.0, 1592.0, 1593.0, 1596.0, 1595.0, 1593.0, 1591.0, 1592.0, 1591.0, 1594.0, 1594.0, 1593.0, 1592.0, 1593.0, 1593.0, 1593.0, 1593.0, 1593.0, 1594.0, 1592.0, 1593.0, 1592.0, 1592.0, 1592.0]
    },
    "slices": {}
  }
}