{
  "AcquisitionMatrixPE": 64,
  "AcquisitionNumber": 1,
  "AcquisitionTime": "14:38:0.562500",
  "BandwidthPerPixelPhaseEncode": 33.967,
  "BaseResolution": 64,
  "CoilCombinationMethod": "Sum of Squares",
  "CoilString": "C:HEA;HEP",
  "ConversionSoftware": "dcm2niix",
  "ConversionSoftwareVersion": "v1.0.20220720",
  "DerivedVendorReportedEchoSpacing": 0.000460005,
  "DeviceSerialNumber": "35193",
  "DwellTime": 3.1e-06,
  "EchoTime": 0.03,
  "EffectiveEchoSpacing": 0.000460005,
  "FlipAngle": 90,
  "HeudiconvVersion": "1.1.6",
  "ImageOrientationPatientDICOM": [1, 0, 0, 0, 1, 0],
  "ImageOrientationText": "Tra",
  "ImageType": [
    "ORIGINAL",
    "PRIMARY",
    "M",
    "ND",
    "MOSAIC"
],
  "ImagingFrequency": 123.254,
  "InPlanePhaseEncodingDirectionDICOM": "COL",
  "InstitutionAddress": "Xinjiekouwai Street No 19,Beijing,Haidian District,CN,100875",
  "InstitutionName": "Beijing Normal Universtiy/5777c4/",
  "InstitutionalDepartmentName": "Department",
  "MRAcquisitionType": "2D",
  "MagneticFieldStrength": 3,
  "Manufacturer": "Siemens",
  "ManufacturersModelName": "TrioTim",
  "MatrixCoilMode": "SENSE",
  "Modality": "MR",
  "NonlinearGradientCorrection": false,
  "PartialFourier": 1,
  "PatientPosition": "HFS",
  "PercentPhaseFOV": 100,
  "PercentSampling": 100,
  "PhaseEncodingDirection": "j-",
  "PhaseEncodingSteps": 64,
  "PhaseResolution": 1,
  "PixelBandwidth": 2520,
  "ProcedureStepDescription": "BNU_cst_2015^Guo.TaoMei",
  "ProtocolName": "ge_func_3x3x4_164",
  "PulseSequenceDetails": "%SiemensSeq%\\ep2d_bold",
  "ReceiveCoilName": "HeadMatrix",
  "ReconMatrixPE": 64,
  "RepetitionTime": 2,
  "SAR": 0.124181,
  "ScanOptions": "FS",
  "ScanningSequence": "EP",
  "SequenceName": "*epfid2d1_64",
  "SequenceVariant": "SK",
  "SeriesDescription": "ge_func_3x3x4_164",
  "SeriesNumber": 4,
  "ShimSetting": [-4506, -19437, -9832, 1062, -131, -548, 44, -59],
  "SliceThickness": 4,
  "SliceTiming": [0, 1.035, 0.0625, 1.095, 0.1225, 1.1575, 0.1825, 1.2175, 0.245, 1.2775, 0.305, 1.34, 0.365, 1.4, 0.4275, 1.46, 0.4875, 1.5225, 0.5475, 1.5825, 0.61, 1.6425, 0.67, 1.705, 0.73, 1.765, 0.7925, 1.825, 0.8525, 1.8875, 0.9125, 1.9475, 0.975],
  "SoftwareVersions": "syngo MR B17",
  "SpacingBetweenSlices": 4.6,
  "StationName": "MRC35193",
  "TaskName": "CognitiveControl",
  "TotalReadoutTime": 0.0289803,
  "TxRefAmp": 322.43,
  "dcmmeta_affine": [
    [-3.125, 0.0, 0.0, 100.0],
    [0.0, 3.125, 0.0, -89.45331573486328],
    [0.0, 0.0, 4.599999904632568, -70.22650909423828],
    [0.0, 0.0, 0.0, 1.0]
],
  "dcmmeta_reorient_transform": [
    [0.0, -1.0, 0.0, 63.0],
    [1.0, 0.0, 0.0, 0.0],
    [0.0, 0.0, 1.0, 0.0],
    [0.0, 0.0, 0.0, 1.0]
],
  "dcmmeta_shape": [64, 64, 33, 164],
  "dcmmeta_slice_dim": 2,
  "dcmmeta_version": 0.6,
  "global": {
    "const": {
      "AcquisitionMatrix": [64, 0, 0, 64],
      "AngioFlag": "N",
      "BitsAllocated": 16,
      "BitsStored": 12,
      "Columns": 384,
      "EchoNumbers": 1,
      "EchoTime": 30.0,
      "EchoTrainLength": 1,
      "FlipAngle": 90.0,
      "HighBit": 11,
      "ImageOrientationPatient": [1.0, 0.0, 0.0, 0.0, 1.0, 0.0],
      "ImagePositionPatient": [-600.0, -607.42168664932, -70.226509094238],
      "ImageType": [
        "ORIGINAL",
        "PRIMARY",
        "M",
        "ND",
        "MOSAIC"
],
      "ImagedNucleus": "1H",
      "ImagingFrequency": 123.253947,
      "InPlanePhaseEncodingDirection": "COL",
      "MRAcquisitionType": "2D",
      "MagneticFieldStrength": 3.0,
      "Manufacturer": "SIEMENS",
      "ManufacturerModelName": "TrioTim",
      "Modality": "MR",
      "NumberOfAverages": 1.0,
      "NumberOfPhaseEncodingSteps": 64,
      "PercentPhaseFieldOfView": 100.0,
      "PercentSampling": 100.0,
      "PerformedProcedureStepStartTime": "142244.265000",
      "PhotometricInterpretation": "MONOCHROME2",
      "PixelBandwidth": 2520.0,
      "PixelRepresentation": 0,
      "PixelSpacing": [3.125, 3.125],
      "ProtocolName": "ge_func_3x3x4_164",
      "RepetitionTime": 2000.0,
      "Rows": 384,
      "SAR": 0.12418121716694,
      "SamplesPerPixel": 1,
      "ScanOptions": "FS",
      "ScanningSequence": "EP",
      "SequenceName": "*epfid2d1_64",
      "SequenceVariant": "SK",
      "SeriesDescription": "ge_func_3x3x4_164",
      "SeriesNumber": 4,
      "SeriesTime": "143857.984000",
      "SliceLocation": -70.226509094238,
      "SliceThickness": 4.0,
      "SmallestImagePixelValue": 0,
      "SoftwareVersions": "syngo MR B17",
      "SpacingBetweenSlices": 4.6000001430511,
      "SpecificCharacterSet": "ISO_IR 100",
      "StudyID": "1",
      "StudyTime": "142244.218000",
      "TransmitCoilName": "Body",
      "VariableFlipAngleFlag": "N",
      "WindowCenterWidthExplanation": "Algo1",
      "dBdt": 0.0},
    "slices": {}
  },
  "time": {
    "samples": {
      "AcquisitionNumber": [1, 2, 3, 4, 5, 6, 7, 8, 9, 10, 11, 12, 13, 14, 15, 16, 17, 18, 19, 20, 21, 22, 23, 24, 25, 26, 27, 28, 29, 30, 31, 32, 33, 34, 35, 36, 37, 38, 39, 40, 41, 42, 43, 44, 45, 46, 47, 48, 49, 50, 51, 52, 53, 54, 55, 56, 57, 58, 59, 60, 61, 62, 63, 64, 65, 66, 67, 68, 69, 70, 71, 72, 73, 74, 75, 76, 77, 78, 79, 80, 81, 82, 83, 84, 85, 86, 87, 88, 89, 90, 91, 92, 93, 94, 95, 96, 97, 98, 99, 100, 101, 102, 103, 104, 105, 106, 107, 108, 109, 110, 111, 112, 113, 114, 115, 116, 117, 118, 119, 120, 121, 122, 123, 124, 125, 126, 127, 128, 129, 130, 131, 132, 133, 134, 135, 136, 137, 138, 139, 140, 141, 142, 143, 144, 145, 146, 147, 148, 149, 150, 151, 152, 153, 154, 155, 156, 157, 158, 159, 160, 161, 162, 163, 164],
      "AcquisitionTime": ["143800.562500", "143802.570000", "143804.580000", "143806.587500", "143808.595000", "143810.602500", "143812.610000", "143814.620000", "143816.627500", "143818.635000", "143820.642500", "143822.652500", "143824.660000", "143826.667500", "143828.675000", "143830.682500", "143832.692500", "143834.700000", "143836.707500", "143838.715000", "143840.722500", "143842.732500", "143844.740000", "143846.747500", "143848.755000", "143850.765000", "143852.772500", "143854.780000", "143856.787500", "143858.795000", "143900.805000", "143902.812500", "143904.820000", "143906.827500", "143908.835000", "143910.845000", "143912.852500", "143914.860000", "143916.867500", "143918.875000", "143920.885000", "143922.892500", "143924.900000", "143926.907500", "143928.917500", "143930.925000", "143932.932500", "143934.940000", "143936.947500", "143938.957500", "143940.965000", "143942.972500", "143944.980000", "143946.987500", "143948.997500", "143951.005000", "143953.012500", "143955.020000", "143957.030000", "143959.037500", "144001.045000", "144003.052500", "144005.060000", "144007.070000", "144009.077500", "144011.085000", "144013.092500", "144015.100000", "144017.110000", "144019.117500", "144021.125000", "144023.132500", "144025.142500", "144027.150000", "144029.157500", "144031.165000", "144033.172500", "144035.182500", "144037.190000", "144039.197500", "144041.205000", "144043.212500", "144045.222500", "144047.230000", "144049.237500", "144051.245000", "144053.255000", "144055.262500", "144057.270000", "144059.277500", "144101.285000", "144103.295000", "144105.302500", "144107.310000", "144109.317500", "144111.325000", "144113.335000", "144115.342500", "144117.350000", "144119.357500", "144121.365000", "144123.375000", "144125.382500", "144127.390000", "144129.397500", "144131.407500", "144133.415000", "144135.422500", "144137.430000", "144139.437500", "144141.447500", "144143.455000", "144145.462500", "144147.470000", "144149.477500", "144151.487500", "144153.495000", "144155.502500", "144157.510000", "144159.520000", "144201.527500", "144203.535000", "144205.542500", "144207.550000", "144209.560000", "144211.567500", "144213.575000", "144215.582500", "144217.590000", "144219.600000", "144221.607500", "144223.615000", "144225.622500", "144227.632500", "144229.640000", "144231.647500", "144233.655000", "144235.662500", "144237.672500", "144239.680000", "144241.687500", "144243.695000", "144245.702500", "144247.712500", "144249.720000", "144251.727500", "144253.735000", "144255.742500", "144257.752500", "144259.760000", "144301.767500", "144303.775000", "144305.785000", "144307.792500", "144309.800000", "144311.807500", "144313.815000", "144315.825000", "144317.832500", "144319.840000", "144321.847500", "144323.855000", "144325.865000", "144327.872500"],
      "ContentTime": ["143857.984000", "143857.984000", "143857.984000", "143857.984000", "143857.984000", "143858.000000", "143858.000000", "143858.000000", "143858.000000", "143858.000000", "143858.000000", "143858.000000", "143858.000000", "143858.015000", "143858.015000", "143858.015000", "143858.015000", "143858.015000", "143858.031000", "143858.031000", "143858.031000", "143858.031000", "143858.046000", "143858.046000", "143858.046000", "143858.046000", "143858.046000", "143858.046000", "143917.968000", "143917.984000", "143917.984000", "143917.984000", "143917.984000", "143917.984000", "143917.984000", "143917.984000", "143917.984000", "143918.000000", "143957.968000", "143957.984000", "143957.984000", "143957.984000", "143957.984000", "143957.984000", "143957.984000", "143957.984000", "143957.984000", "143958.000000", "143958.000000", "143958.000000", "143958.000000", "143958.000000", "143958.000000", "143958.015000", "143958.015000", "143958.015000", "143958.015000", "143958.015000", "144037.968000", "144037.984000", "144037.984000", "144037.984000", "144037.984000", "144037.984000", "144038.000000", "144038.000000", "144038.000000", "144038.000000", "144038.000000", "144038.015000", "144038.015000", "144038.015000", "144038.015000", "144038.015000", "144038.015000", "144038.015000", "144038.015000", "144038.031000", "144117.968000", "144117.984000", "144117.984000", "144117.984000", "144117.984000", "144118.000000", "144118.000000", "144118.000000", "144118.000000", "144118.000000", "144118.000000", "144118.000000", "144118.000000", "144118.015000", "144118.015000", "144118.015000", "144118.015000", "144118.015000", "144118.015000", "144118.031000", "144157.968000", "144157.984000", "144157.984000", "144157.984000", "144157.984000", "144157.984000", "144157.984000", "144157.984000", "144157.984000", "144158.000000", "144158.000000", "144158.000000", "144158.000000", "144158.000000", "144158.000000", "144158.000000", "144158.000000", "144158.015000", "144158.015000", "144158.015000", "144237.968000", "144237.984000", "144237.984000", "144237.984000", "144237.984000", "144237.984000", "144237.984000", "144238.000000", "144238.000000", "144238.000000", "144238.015000", "144238.015000", "144238.015000", "144238.015000", "144238.015000", "144238.015000", "144238.015000", "144238.015000", "144238.031000", "144238.031000", "144317.968000", "144317.984000", "144317.984000", "144317.984000", "144317.984000", "144317.984000", "144317.984000", "144317.984000", "144317.984000", "144318.000000", "144318.000000", "144318.000000", "144318.000000", "144318.000000", "144318.000000", "144318.000000", "144318.000000", "144318.015000", "144318.015000", "144318.015000", "144329.593000", "144329.593000", "144329.593000", "144329.593000", "144329.593000", "144329.593000"],
      "InstanceCreationTime": ["143857.984000", "143857.984000", "143857.984000", "143857.984000", "143857.984000", "143858.000000", "143858.000000", "143858.000000", "143858.000000", "143858.000000", "143858.000000", "143858.000000", "143858.000000", "143858.015000", "143858.015000", "143858.015000", "143858.015000", "143858.015000", "143858.031000", "143858.031000", "143858.031000", "143858.031000", "143858.046000", "143858.046000", "143858.046000", "143858.046000", "143858.046000", "143858.046000", "143917.968000", "143917.984000", "143917.984000", "143917.984000", "143917.984000", "143917.984000", "143917.984000", "143917.984000", "143917.984000", "143918.000000", "143957.968000", "143957.984000", "143957.984000", "143957.984000", "143957.984000", "143957.984000", "143957.984000", "143957.984000", "143957.984000", "143958.000000", "143958.000000", "143958.000000", "143958.000000", "143958.000000", "143958.000000", "143958.015000", "143958.015000", "143958.015000", "143958.015000", "143958.015000", "144037.968000", "144037.984000", "144037.984000", "144037.984000", "144037.984000", "144037.984000", "144038.000000", "144038.000000", "144038.000000", "144038.000000", "144038.000000", "144038.015000", "144038.015000", "144038.015000", "144038.015000", "144038.015000", "144038.015000", "144038.015000", "144038.015000", "144038.031000", "144117.968000", "144117.984000", "144117.984000", "144117.984000", "144117.984000", "144118.000000", "144118.000000", "144118.000000", "144118.000000", "144118.000000", "144118.000000", "144118.000000", "144118.000000", "144118.015000", "144118.015000", "144118.015000", "144118.015000", "144118.015000", "144118.015000", "144118.031000", "144157.968000", "144157.984000", "144157.984000", "144157.984000", "144157.984000", "144157.984000", "144157.984000", "144157.984000", "144157.984000", "144158.000000", "144158.000000", "144158.000000", "144158.000000", "144158.000000", "144158.000000", "144158.000000", "144158.000000", "144158.015000", "144158.015000", "144158.015000", "144237.968000", "144237.984000", "144237.984000", "144237.984000", "144237.984000", "144237.984000", "144237.984000", "144238.000000", "144238.000000", "144238.000000", "144238.015000", "144238.015000", "144238.015000", "144238.015000", "144238.015000", "144238.015000", "144238.015000", "144238.015000", "144238.031000", "144238.031000", "144317.968000", "144317.984000", "144317.984000", "144317.984000", "144317.984000", "144317.984000", "144317.984000", "144317.984000", "144317.984000", "144318.000000", "144318.000000", "144318.000000", "144318.000000", "144318.000000", "144318.000000", "144318.000000", "144318.000000", "144318.015000", "144318.015000", "144318.015000", "144329.593000", "144329.593000", "144329.593000", "144329.593000", "144329.593000", "144329.593000"],
      "InstanceNumber": [1, 2, 3, 4, 5, 6, 7, 8, 9, 10, 11, 12, 13, 14, 15, 16, 17, 18, 19, 20, 21, 22, 23, 24, 25, 26, 27, 28, 29, 30, 31, 32, 33, 34, 35, 36, 37, 38, 39, 40, 41, 42, 43, 44, 45, 46, 47, 48, 49, 50, 51, 52, 53, 54, 55, 56, 57, 58, 59, 60, 61, 62, 63, 64, 65, 66, 67, 68, 69, 70, 71, 72, 73, 74, 75, 76, 77, 78, 79, 80, 81, 82, 83, 84, 85, 86, 87, 88, 89, 90, 91, 92, 93, 94, 95, 96, 97, 98, 99, 100, 101, 102, 103, 104, 105, 106, 107, 108, 109, 110, 111, 112, 113, 114, 115, 116, 117, 118, 119, 120, 121, 122, 123, 124, 125, 126, 127, 128, 129, 130, 131, 132, 133, 134, 135, 136, 137, 138, 139, 140, 141, 142, 143, 144, 145, 146, 147, 148, 149, 150, 151, 152, 153, 154, 155, 156, 157, 158, 159, 160, 161, 162, 163, 164],
      "LargestImagePixelValue": [1745, 1704, 1680, 1699, 1668, 1673, 1677, 1677, 1682, 1704, 1681, 1706, 1678, 1687, 1675, 1679, 1669, 1675, 1685, 1689, 1694, 1681, 1690, 1687, 1681, 1703, 1685, 1697, 1676, 1690, 1698, 1685, 1690, 1672, 1686, 1684, 1683, 1698, 1690, 1696, 1691, 1694, 1703, 1699, 1698, 1697, 1696, 1700, 1699, 1695, 1702, 1694, 1704, 1675, 1700, 1706, 1706, 1701, 1696, 1696, 1690, 1694, 1696, 1694, 1690, 1703, 1704, 1702, 1688, 1702, 1698, 1694, 1695, 1704, 1696, 1705, 1703, 1686, 1708, 1715, 1696, 1700, 1680, 1693, 1698, 1705, 1697, 1715, 1714, 1715, 1703, 1706, 1703, 1699, 1708, 1704, 1699, 1707, 1704, 1711, 1693, 1700, 1694, 1692, 1701, 1684, 1725, 1698, 1698, 1704, 1703, 1712, 1697, 1712, 1700, 1717, 1706, 1706, 1709, 1715, 1702, 1698, 1703, 1708, 1720, 1714, 1720, 1705, 1736, 1728, 1710, 1724, 1708, 1716, 1719, 1705, 1712, 1697, 1753, 1700, 1690, 1705, 1695, 1702, 1718, 1714, 1693, 1721, 1686, 1707, 1692, 1701, 1712, 1713, 1709, 1705, 1708, 1694, 1687, 1698, 1697, 1702, 1690, 1697],
      "WindowCenter": [718.0, 715.0, 715.0, 715.0, 715.0, 714.0, 715.0, 715.0, 715.0, 716.0, 716.0, 716.0, 715.0, 715.0, 715.0, 715.0, 715.0, 714.0, 715.0, 716.0, 716.0, 715.0, 715.0, 715.0, 715.0, 715.0, 716.0, 717.0, 716.0, 715.0, 715.0, 715.0, 715.0, 715.0, 715.0, 715.0, 715.0, 715.0, 715.0, 715.0, 715.0, 715.0, 716.0, 717.0, 715.0, 714.0, 714.0, 715.0, 715.0, 715.0, 716.0, 715.0, 715.0, 714.0, 716.0, 717.0, 716.0, 715.0, 716.0, 716.0, 715.0, 716.0, 716.0, 715.0, 715.0, 715.0, 716.0, 717.0, 715.0, 715.0, 715.0, 716.0, 715.0, 715.0, 714.0, 714.0, 715.0, 715.0, 715.0, 715.0, 716.0, 717.0, 716.0, 715.0, 715.0, 715.0, 716.0, 717.0, 716.0, 715.0, 715.0, 716.0, 717.0, 717.0, 716.0, 715.0, 716.0, 717.0, 716.0, 716.0, 716.0, 717.0, 717.0, 716.0, 716.0, 716.0, 716.0, 717.0, 717.0, 717.0, 716.0, 715.0, 716.0, 716.0, 715.0, 716.0, 716.0, 716.0, 716.0, 717.0, 717.0, 717.0, 716.0, 716.0, 716.0, 717.0, 716.0, 715.0, 716.0, 717.0, 718.0, 717.0, 716.0, 715.0, 716.0, 717.0, 715.0, 716.0, 716.0, 716.0, 716.0, 716.0, 716.0, 715.0, 715.0, 717.0, 718.0, 718.0, 716.0, 716.0, 716.0, 716.0, 716.0, 716.0, 717.0, 717.0, 718.0, 717.0, 717.0, 717.0, 717.0, 717.0, 717.0, 717.0],
      "WindowWidth": [1562.0, 1553.0, 1553.0, 1552.0, 1552.0, 1549.0, 1552.0, 1552.0, 1554.0, 1557.0, 1557.0, 1555.0, 1551.0, 1552.0, 1552.0, 1552.0, 1552.0, 1551.0, 1553.0, 1555.0, 1554.0, 1553.0, 1554.0, 1554.0, 1551.0, 1553.0, 1554.0, 1557.0, 1554.0, 1552.0, 1553.0, 1552.0, 1552.0, 1552.0, 1552.0, 1553.0, 1553.0, 1554.0, 1554.0, 1553.0, 1553.0, 1552.0, 1556.0, 1558.0, 1553.0, 1550.0, 1549.0, 1552.0, 1553.0, 1553.0, 1554.0, 1552.0, 1551.0, 1550.0, 1555.0, 1557.0, 1555.0, 1553.0, 1554.0, 1554.0, 1553.0, 1555.0, 1555.0, 1552.0, 1551.0, 1551.0, 1555.0, 1557.0, 1553.0, 1552.0, 1552.0, 1554.0, 1552.0, 1551.0, 1549.0, 1551.0, 1553.0, 1553.0, 1552.0, 1551.0, 1554.0, 1558.0, 1554.0, 1551.0, 1551.0, 1552.0, 1554.0, 1556.0, 1556.0, 1553.0, 1551.0, 1556.0, 1559.0, 1557.0, 1554.0, 1551.0, 1554.0, 1556.0, 1556.0, 1554.0, 1555.0, 1556.0, 1558.0, 1556.0, 1554.0, 1554.0, 1554.0, 1558.0, 1558.0, 1557.0, 1554.0, 1553.0, 1554.0, 1556.0, 1553.0, 1556.0, 1555.0, 1556.0, 1556.0, 1557.0, 1558.0, 1557.0, 1555.0, 1555.0, 1556.0, 1557.0, 1555.0, 1552.0, 1556.0, 1557.0, 1559.0, 1557.0, 1553.0, 1552.0, 1555.0, 1557.0, 1553.0, 1554.0, 1555.0, 1555.0, 1555.0, 1555.0, 1554.0, 1552.0, 1553.0, 1558.0, 1560.0, 1559.0, 1555.0, 1556.0, 1555.0, 1554.0, 1556.0, 1555.0, 1557.0, 1558.0, 1559.0, 1559.0, 1557.0, 1559.0, 1558.0, 1557.0, 1557.0, 1556.0]
    },
    "slices": {}
  }
}