{
  "AcquisitionMatrixPE": 64,
  "AcquisitionNumber": 1,
  "AcquisitionTime": "09:07:11.745000",
  "BandwidthPerPixelPhaseEncode": 33.967,
  "BaseResolution": 64,
  "CoilCombinationMethod": "Sum of Squares",
  "CoilString": "C:HEA;HEP",
  "ConversionSoftware": "dcm2niix",
  "ConversionSoftwareVersion": "v1.0.20220720",
  "DerivedVendorReportedEchoSpacing": 0.000460005,
  "DeviceSerialNumber": "35193",
  "DwellTime": 3.1e-06,
  "EchoTime": 0.03,
  "EffectiveEchoSpacing": 0.000460005,
  "FlipAngle": 90,
  "HeudiconvVersion": "1.1.6",
  "ImageOrientationPatientDICOM": [1, 0, 0, 0, 1, 0],
  "ImageOrientationText": "Tra",
  "ImageType": [
    "ORIGINAL",
    "PRIMARY",
    "M",
    "ND",
    "MOSAIC"
],
  "ImagingFrequency": 123.254,
  "InPlanePhaseEncodingDirectionDICOM": "COL",
  "InstitutionAddress": "Xinjiekouwai Street No 19,Beijing,Haidian District,CN,100875",
  "InstitutionName": "BNU MRI Center",
  "InstitutionalDepartmentName": "Department",
  "MRAcquisitionType": "2D",
  "MagneticFieldStrength": 3,
  "Manufacturer": "Siemens",
  "ManufacturersModelName": "TrioTim",
  "MatrixCoilMode": "SENSE",
  "Modality": "MR",
  "NonlinearGradientCorrection": false,
  "PartialFourier": 1,
  "PatientPosition": "HFS",
  "PercentPhaseFOV": 100,
  "PercentSampling": 100,
  "PhaseEncodingDirection": "j-",
  "PhaseEncodingSteps": 64,
  "PhaseResolution": 1,
  "PixelBandwidth": 2520,
  "ProcedureStepDescription": "BNU_cst_2015^Guo.TaoMei",
  "ProtocolName": "ge_func_3x3x4_164",
  "PulseSequenceDetails": "%SiemensSeq%\\ep2d_bold",
  "ReceiveCoilName": "HeadMatrix",
  "ReconMatrixPE": 64,
  "RepetitionTime": 2,
  "SAR": 0.179255,
  "ScanOptions": "FS",
  "ScanningSequence": "EP",
  "SequenceName": "*epfid2d1_64",
  "SequenceVariant": "SK",
  "SeriesDescription": "ge_func_3x3x4_164",
  "SeriesNumber": 2,
  "ShimSetting": [-4476, -19470, -9709, 1217, -108, -624, -11, -88],
  "SliceThickness": 4,
  "SliceTiming": [0, 1.035, 0.06, 1.095, 0.1225, 1.155, 0.1825, 1.2175, 0.2425, 1.2775, 0.305, 1.3375, 0.365, 1.4, 0.425, 1.46, 0.4875, 1.52, 0.5475, 1.5825, 0.6075, 1.6425, 0.67, 1.7025, 0.73, 1.765, 0.79, 1.825, 0.8525, 1.885, 0.9125, 1.9475, 0.9725],
  "SoftwareVersions": "syngo MR B17",
  "SpacingBetweenSlices": 4.6,
  "StationName": "MRC35193",
  "TaskName": "LanguageControl",
  "TotalReadoutTime": 0.0289803,
  "TxRefAmp": 338.978,
  "dcmmeta_affine": [
    [-3.125, 0.0, 0.0, 93.25301361083984],
    [0.0, 3.125, 0.0, -74.60993957519531],
    [0.0, 0.0, 4.599999904632568, -39.19036102294922],
    [0.0, 0.0, 0.0, 1.0]
],
  "dcmmeta_reorient_transform": [
    [0.0, -1.0, 0.0, 63.0],
    [1.0, 0.0, 0.0, 0.0],
    [0.0, 0.0, 1.0, 0.0],
    [0.0, 0.0, 0.0, 1.0]
],
  "dcmmeta_shape": [64, 64, 33, 164],
  "dcmmeta_slice_dim": 2,
  "dcmmeta_version": 0.6,
  "global": {
    "const": {
      "AcquisitionMatrix": [64, 0, 0, 64],
      "AngioFlag": "N",
      "BitsAllocated": 16,
      "BitsStored": 12,
      "Columns": 384,
      "EchoNumbers": 1,
      "EchoTime": 30.0,
      "EchoTrainLength": 1,
      "FlipAngle": 90.0,
      "HighBit": 11,
      "ImageOrientationPatient": [1.0, 0.0, 0.0, 0.0, 1.0, 0.0],
      "ImagePositionPatient": [-593.25301218033, -622.2650604248, -39.190361022949],
      "ImageType": [
        "ORIGINAL",
        "PRIMARY",
        "M",
        "ND",
        "MOSAIC"
],
      "ImagedNucleus": "1H",
      "ImagingFrequency": 123.25354,
      "InPlanePhaseEncodingDirection": "COL",
      "MRAcquisitionType": "2D",
      "MagneticFieldStrength": 3.0,
      "Manufacturer": "SIEMENS",
      "ManufacturerModelName": "TrioTim",
      "Modality": "MR",
      "NumberOfAverages": 1.0,
      "NumberOfPhaseEncodingSteps": 64,
      "PercentPhaseFieldOfView": 100.0,
      "PercentSampling": 100.0,
      "PerformedProcedureStepStartTime": "085613.921000",
      "PhotometricInterpretation": "MONOCHROME2",
      "PixelBandwidth": 2520.0,
      "PixelRepresentation": 0,
      "PixelSpacing": [3.125, 3.125],
      "ProtocolName": "ge_func_3x3x4_164",
      "RepetitionTime": 2000.0,
      "Rows": 384,
      "SAR": 0.17925502816888,
      "SamplesPerPixel": 1,
      "ScanOptions": "FS",
      "ScanningSequence": "EP",
      "SequenceName": "*epfid2d1_64",
      "SequenceVariant": "SK",
      "SeriesDescription": "ge_func_3x3x4_164",
      "SeriesNumber": 2,
      "SeriesTime": "090714.968000",
      "SliceLocation": -39.190361022949,
      "SliceThickness": 4.0,
      "SmallestImagePixelValue": 0,
      "SoftwareVersions": "syngo MR B17",
      "SpacingBetweenSlices": 4.5999999046326,
      "SpecificCharacterSet": "ISO_IR 100",
      "StudyID": "1",
      "StudyTime": "085613.000000",
      "TransmitCoilName": "Body",
      "VariableFlipAngleFlag": "N",
      "WindowCenterWidthExplanation": "Algo1",
      "dBdt": 0.0},
    "slices": {}
  },
  "time": {
    "samples": {
      "AcquisitionNumber": [1, 2, 3, 4, 5, 6, 7, 8, 9, 10, 11, 12, 13, 14, 15, 16, 17, 18, 19, 20, 21, 22, 23, 24, 25, 26, 27, 28, 29, 30, 31, 32, 33, 34, 35, 36, 37, 38, 39, 40, 41, 42, 43, 44, 45, 46, 47, 48, 49, 50, 51, 52, 53, 54, 55, 56, 57, 58, 59, 60, 61, 62, 63, 64, 65, 66, 67, 68, 69, 70, 71, 72, 73, 74, 75, 76, 77, 78, 79, 80, 81, 82, 83, 84, 85, 86, 87, 88, 89, 90, 91, 92, 93, 94, 95, 96, 97, 98, 99, 100, 101, 102, 103, 104, 105, 106, 107, 108, 109, 110, 111, 112, 113, 114, 115, 116, 117, 118, 119, 120, 121, 122, 123, 124, 125, 126, 127, 128, 129, 130, 131, 132, 133, 134, 135, 136, 137, 138, 139, 140, 141, 142, 143, 144, 145, 146, 147, 148, 149, 150, 151, 152, 153, 154, 155, 156, 157, 158, 159, 160, 161, 162, 163, 164],
      "AcquisitionTime": ["090711.745000", "090713.752500", "090715.760000", "090717.770000", "090719.777500", "090721.785000", "090723.792500", "090725.800000", "090727.810000", "090729.817500", "090731.825000", "090733.832500", "090735.842500", "090737.850000", "090739.857500", "090741.865000", "090743.872500", "090745.882500", "090747.890000", "090749.897500", "090751.905000", "090753.912500", "090755.922500", "090757.930000", "090759.937500", "090801.945000", "090803.955000", "090805.962500", "090807.970000", "090809.977500", "090811.985000", "090813.995000", "090816.002500", "090818.010000", "090820.017500", "090822.025000", "090824.035000", "090826.042500", "090828.050000", "090830.057500", "090832.067500", "090834.075000", "090836.082500", "090838.090000", "090840.097500", "090842.107500", "090844.115000", "090846.122500", "090848.130000", "090850.137500", "090852.147500", "090854.155000", "090856.162500", "090858.170000", "090900.180000", "090902.187500", "090904.195000", "090906.202500", "090908.210000", "090910.220000", "090912.227500", "090914.235000", "090916.242500", "090918.250000", "090920.260000", "090922.267500", "090924.275000", "090926.282500", "090928.290000", "090930.300000", "090932.307500", "090934.315000", "090936.322500", "090938.332500", "090940.340000", "090942.347500", "090944.355000", "090946.362500", "090948.372500", "090950.380000", "090952.387500", "090954.395000", "090956.402500", "090958.412500", "091000.420000", "091002.427500", "091004.435000", "091006.445000", "091008.452500", "091010.460000", "091012.467500", "091014.475000", "091016.485000", "091018.492500", "091020.500000", "091022.507500", "091024.515000", "091026.525000", "091028.532500", "091030.540000", "091032.547500", "091034.557500", "091036.565000", "091038.572500", "091040.580000", "091042.587500", "091044.597500", "091046.605000", "091048.612500", "091050.620000", "091052.627500", "091054.637500", "091056.645000", "091058.652500", "091100.660000", "091102.667500", "091104.677500", "091106.685000", "091108.692500", "091110.700000", "091112.710000", "091114.717500", "091116.725000", "091118.732500", "091120.740000", "091122.750000", "091124.757500", "091126.765000", "091128.772500", "091130.780000", "091132.790000", "091134.797500", "091136.805000", "091138.812500", "091140.822500", "091142.830000", "091144.837500", "091146.845000", "091148.852500", "091150.862500", "091152.870000", "091154.877500", "091156.885000", "091158.892500", "091200.902500", "091202.910000", "091204.917500", "091206.925000", "091208.935000", "091210.942500", "091212.950000", "091214.957500", "091216.965000", "091218.975000", "091220.982500", "091222.990000", "091224.997500", "091227.005000", "091229.015000", "091231.022500", "091233.030000", "091235.037500", "091237.045000", "091239.055000"],
      "ContentTime": ["090714.984000", "090754.968000", "090754.968000", "090754.968000", "090754.968000", "090754.984000", "090754.984000", "090754.984000", "090754.984000", "090754.984000", "090754.984000", "090754.984000", "090754.984000", "090755.000000", "090755.000000", "090755.000000", "090755.000000", "090755.000000", "090755.000000", "090755.000000", "090755.015000", "090834.968000", "090834.968000", "090834.968000", "090834.968000", "090834.968000", "090834.968000", "090834.968000", "090834.984000", "090834.984000", "090834.984000", "090834.984000", "090834.984000", "090834.984000", "090835.000000", "090835.000000", "090835.000000", "090835.000000", "090835.000000", "090835.000000", "090835.000000", "090914.968000", "090914.968000", "090914.968000", "090914.968000", "090914.968000", "090914.968000", "090914.968000", "090914.968000", "090914.984000", "090914.984000", "090914.984000", "090914.984000", "090914.984000", "090914.984000", "090914.984000", "090914.984000", "090914.984000", "090915.000000", "090915.000000", "090915.000000", "090954.968000", "090954.968000", "090954.968000", "090954.968000", "090954.968000", "090954.968000", "090954.968000", "090954.968000", "090954.984000", "090954.984000", "090954.984000", "090954.984000", "090954.984000", "090955.000000", "090955.000000", "090955.000000", "090955.000000", "090955.000000", "090955.000000", "090955.000000", "091034.968000", "091034.968000", "091034.968000", "091034.968000", "091034.968000", "091034.984000", "091034.984000", "091034.984000", "091034.984000", "091034.984000", "091034.984000", "091034.984000", "091034.984000", "091034.984000", "091035.000000", "091035.000000", "091035.000000", "091035.000000", "091035.000000", "091035.000000", "091114.968000", "091114.968000", "091114.968000", "091114.968000", "091114.968000", "091114.968000", "091114.968000", "091114.968000", "091114.984000", "091114.984000", "091114.984000", "091114.984000", "091114.984000", "091114.984000", "091114.984000", "091114.984000", "091115.000000", "091115.000000", "091115.000000", "091115.000000", "091154.968000", "091154.968000", "091154.968000", "091154.984000", "091154.984000", "091154.984000", "091154.984000", "091154.984000", "091154.984000", "091154.984000", "091154.984000", "091155.000000", "091155.000000", "091155.000000", "091155.000000", "091155.000000", "091155.000000", "091155.000000", "091155.000000", "091155.015000", "091234.968000", "091234.968000", "091234.968000", "091234.968000", "091234.968000", "091234.968000", "091234.968000", "091234.968000", "091234.984000", "091234.984000", "091234.984000", "091234.984000", "091234.984000", "091234.984000", "091234.984000", "091234.984000", "091235.000000", "091235.000000", "091235.000000", "091235.000000", "091240.218000", "091240.218000", "091240.218000"],
      "InstanceCreationTime": ["090714.984000", "090754.968000", "090754.968000", "090754.968000", "090754.968000", "090754.984000", "090754.984000", "090754.984000", "090754.984000", "090754.984000", "090754.984000", "090754.984000", "090754.984000", "090755.000000", "090755.000000", "090755.000000", "090755.000000", "090755.000000", "090755.000000", "090755.000000", "090755.015000", "090834.968000", "090834.968000", "090834.968000", "090834.968000", "090834.968000", "090834.968000", "090834.968000", "090834.984000", "090834.984000", "090834.984000", "090834.984000", "090834.984000", "090834.984000", "090835.000000", "090835.000000", "090835.000000", "090835.000000", "090835.000000", "090835.000000", "090835.000000", "090914.968000", "090914.968000", "090914.968000", "090914.968000", "090914.968000", "090914.968000", "090914.968000", "090914.968000", "090914.984000", "090914.984000", "090914.984000", "090914.984000", "090914.984000", "090914.984000", "090914.984000", "090914.984000", "090914.984000", "090915.000000", "090915.000000", "090915.000000", "090954.968000", "090954.968000", "090954.968000", "090954.968000", "090954.968000", "090954.968000", "090954.968000", "090954.968000", "090954.984000", "090954.984000", "090954.984000", "090954.984000", "090954.984000", "090955.000000", "090955.000000", "090955.000000", "090955.000000", "090955.000000", "090955.000000", "090955.000000", "091034.968000", "091034.968000", "091034.968000", "091034.968000", "091034.968000", "091034.984000", "091034.984000", "091034.984000", "091034.984000", "091034.984000", "091034.984000", "091034.984000", "091034.984000", "091034.984000", "091035.000000", "091035.000000", "091035.000000", "091035.000000", "091035.000000", "091035.000000", "091114.968000", "091114.968000", "091114.968000", "091114.968000", "091114.968000", "091114.968000", "091114.968000", "091114.968000", "091114.984000", "091114.984000", "091114.984000", "091114.984000", "091114.984000", "091114.984000", "091114.984000", "091114.984000", "091115.000000", "091115.000000", "091115.000000", "091115.000000", "091154.968000", "091154.968000", "091154.968000", "091154.984000", "091154.984000", "091154.984000", "091154.984000", "091154.984000", "091154.984000", "091154.984000", "091154.984000", "091155.000000", "091155.000000", "091155.000000", "091155.000000", "091155.000000", "091155.000000", "091155.000000", "091155.000000", "091155.015000", "091234.968000", "091234.968000", "091234.968000", "091234.968000", "091234.968000", "091234.968000", "091234.968000", "091234.968000", "091234.984000", "091234.984000", "091234.984000", "091234.984000", "091234.984000", "091234.984000", "091234.984000", "091234.984000", "091235.000000", "091235.000000", "091235.000000", "091235.000000", "091240.218000", "091240.218000", "091240.218000"],
      "InstanceNumber": [1, 2, 3, 4, 5, 6, 7, 8, 9, 10, 11, 12, 13, 14, 15, 16, 17, 18, 19, 20, 21, 22, 23, 24, 25, 26, 27, 28, 29, 30, 31, 32, 33, 34, 35, 36, 37, 38, 39, 40, 41, 42, 43, 44, 45, 46, 47, 48, 49, 50, 51, 52, 53, 54, 55, 56, 57, 58, 59, 60, 61, 62, 63, 64, 65, 66, 67, 68, 69, 70, 71, 72, 73, 74, 75, 76, 77, 78, 79, 80, 81, 82, 83, 84, 85, 86, 87, 88, 89, 90, 91, 92, 93, 94, 95, 96, 97, 98, 99, 100, 101, 102, 103, 104, 105, 106, 107, 108, 109, 110, 111, 112, 113, 114, 115, 116, 117, 118, 119, 120, 121, 122, 123, 124, 125, 126, 127, 128, 129, 130, 131, 132, 133, 134, 135, 136, 137, 138, 139, 140, 141, 142, 143, 144, 145, 146, 147, 148, 149, 150, 151, 152, 153, 154, 155, 156, 157, 158, 159, 160, 161, 162, 163, 164],
      "LargestImagePixelValue": [1664, 1677, 1585, 1599, 1609, 1592, 1673, 1598, 1596, 1602, 1581, 1657, 1609, 1595, 1577, 1582, 1643, 1588, 1640, 1593, 1601, 1592, 1684, 1643, 1603, 1728, 1584, 1586, 1626, 1596, 1610, 1603, 1604, 1625, 1608, 1607, 1588, 1609, 1665, 1602, 1631, 1594, 1596, 1607, 1591, 1603, 1614, 1698, 1612, 1591, 1736, 1599, 1589, 1677, 1587, 1598, 1606, 1593, 1595, 1605, 1609, 1656, 1608, 1614, 1584, 1624, 1594, 1626, 1587, 1601, 1654, 1621, 1623, 1607, 1608, 1597, 1674, 1603, 1609, 1615, 1609, 1625, 1611, 1626, 1617, 1739, 1637, 1622, 1635, 1638, 1716, 1639, 1675, 1641, 1654, 1652, 1657, 1628, 1677, 1631, 1659, 1632, 1662, 1642, 1666, 1652, 1665, 1652, 1655, 1695, 1651, 1668, 1692, 1670, 1712, 1680, 1660, 1735, 1672, 1668, 1657, 1682, 1678, 1665, 1692, 1684, 1658, 1693, 1663, 1680, 1670, 1677, 1697, 1676, 1669, 1701, 1693, 1677, 1669, 1672, 1678, 1676, 1692, 1676, 1675, 1689, 1667, 1679, 1698, 1692, 1686, 1694, 1703, 1691, 1683, 1692, 1669, 1683, 1683, 1700, 1690, 1694, 1680, 1696],
      "WindowCenter": [744.0, 742.0, 742.0, 742.0, 741.0, 739.0, 740.0, 740.0, 741.0, 741.0, 740.0, 741.0, 740.0, 740.0, 740.0, 740.0, 740.0, 740.0, 740.0, 739.0, 739.0, 740.0, 741.0, 741.0, 740.0, 740.0, 739.0, 740.0, 741.0, 740.0, 741.0, 741.0, 740.0, 740.0, 740.0, 741.0, 741.0, 741.0, 741.0, 741.0, 741.0, 740.0, 741.0, 741.0, 741.0, 741.0, 741.0, 741.0, 741.0, 740.0, 741.0, 740.0, 740.0, 741.0, 741.0, 740.0, 740.0, 739.0, 739.0, 739.0, 741.0, 741.0, 741.0, 740.0, 740.0, 740.0, 740.0, 741.0, 741.0, 741.0, 742.0, 741.0, 741.0, 740.0, 740.0, 740.0, 739.0, 739.0, 740.0, 741.0, 741.0, 741.0, 740.0, 740.0, 740.0, 741.0, 740.0, 741.0, 741.0, 741.0, 741.0, 740.0, 740.0, 740.0, 740.0, 740.0, 740.0, 740.0, 741.0, 741.0, 741.0, 741.0, 741.0, 741.0, 741.0, 741.0, 741.0, 740.0, 740.0, 740.0, 741.0, 741.0, 741.0, 741.0, 741.0, 740.0, 739.0, 740.0, 740.0, 739.0, 739.0, 739.0, 740.0, 739.0, 740.0, 739.0, 740.0, 740.0, 740.0, 740.0, 740.0, 739.0, 739.0, 739.0, 739.0, 741.0, 740.0, 741.0, 740.0, 741.0, 741.0, 741.0, 742.0, 740.0, 740.0, 740.0, 740.0, 740.0, 740.0, 741.0, 741.0, 741.0, 741.0, 741.0, 741.0, 741.0, 740.0, 741.0, 741.0, 742.0, 743.0, 742.0, 741.0, 741.0],
      "WindowWidth": [1617.0, 1612.0, 1611.0, 1612.0, 1608.0, 1603.0, 1607.0, 1607.0, 1608.0, 1607.0, 1607.0, 1608.0, 1606.0, 1606.0, 1606.0, 1606.0, 1607.0, 1606.0, 1607.0, 1604.0, 1605.0, 1606.0, 1609.0, 1608.0, 1607.0, 1607.0, 1604.0, 1606.0, 1608.0, 1607.0, 1609.0, 1608.0, 1606.0, 1606.0, 1606.0, 1609.0, 1608.0, 1609.0, 1610.0, 1608.0, 1609.0, 1607.0, 1609.0, 1609.0, 1609.0, 1609.0, 1608.0, 1609.0, 1608.0, 1607.0, 1610.0, 1607.0, 1607.0, 1609.0, 1608.0, 1607.0, 1605.0, 1604.0, 1605.0, 1605.0, 1608.0, 1610.0, 1608.0, 1607.0, 1605.0, 1608.0, 1606.0, 1609.0, 1608.0, 1609.0, 1611.0, 1609.0, 1608.0, 1606.0, 1607.0, 1605.0, 1605.0, 1604.0, 1608.0, 1608.0, 1609.0, 1608.0, 1607.0, 1606.0, 1607.0, 1609.0, 1608.0, 1609.0, 1610.0, 1611.0, 1610.0, 1606.0, 1607.0, 1606.0, 1605.0, 1606.0, 1607.0, 1607.0, 1610.0, 1609.0, 1608.0, 1609.0, 1610.0, 1608.0, 1610.0, 1610.0, 1609.0, 1607.0, 1605.0, 1607.0, 1609.0, 1610.0, 1611.0, 1608.0, 1609.0, 1607.0, 1604.0, 1606.0, 1606.0, 1605.0, 1604.0, 1604.0, 1607.0, 1605.0, 1606.0, 1606.0, 1606.0, 1608.0, 1606.0, 1607.0, 1606.0, 1603.0, 1603.0, 1604.0, 1605.0, 1608.0, 1608.0, 1608.0, 1608.0, 1609.0, 1609.0, 1609.0, 1611.0, 1608.0, 1606.0, 1606.0, 1606.0, 1606.0, 1608.0, 1609.0, 1608.0, 1608.0, 1609.0, 1609.0, 1610.0, 1610.0, 1607.0, 1609.0, 1610.0, 1612.0, 1615.0, 1613.0, 1611.0, 1611.0]
    },
    "slices": {}
  }
}