{
  "AcquisitionMatrixPE": 64,
  "AcquisitionNumber": 1,
  "AcquisitionTime": "12:24:22.627500",
  "BandwidthPerPixelPhaseEncode": 33.967,
  "BaseResolution": 64,
  "CoilCombinationMethod": "Sum of Squares",
  "CoilString": "C:HEA;HEP",
  "ConversionSoftware": "dcm2niix",
  "ConversionSoftwareVersion": "v1.0.20220720",
  "DerivedVendorReportedEchoSpacing": 0.000460005,
  "DeviceSerialNumber": "35193",
  "DwellTime": 3.1e-06,
  "EchoTime": 0.03,
  "EffectiveEchoSpacing": 0.000460005,
  "FlipAngle": 90,
  "HeudiconvVersion": "1.1.6",
  "ImageOrientationPatientDICOM": [1, 0, 0, 0, 1, 0],
  "ImageOrientationText": "Tra",
  "ImageType": [
    "ORIGINAL",
    "PRIMARY",
    "M",
    "ND",
    "MOSAIC"
],
  "ImagingFrequency": 123.254,
  "InPlanePhaseEncodingDirectionDICOM": "COL",
  "InstitutionAddress": "Xinjiekouwai Street No 19,Beijing,Haidian District,CN,100875",
  "InstitutionName": "BNU MRI Center",
  "InstitutionalDepartmentName": "Department",
  "MRAcquisitionType": "2D",
  "MagneticFieldStrength": 3,
  "Manufacturer": "Siemens",
  "ManufacturersModelName": "TrioTim",
  "MatrixCoilMode": "SENSE",
  "Modality": "MR",
  "NonlinearGradientCorrection": false,
  "PartialFourier": 1,
  "PatientPosition": "HFS",
  "PercentPhaseFOV": 100,
  "PercentSampling": 100,
  "PhaseEncodingDirection": "j-",
  "PhaseEncodingSteps": 64,
  "PhaseResolution": 1,
  "PixelBandwidth": 2520,
  "ProcedureStepDescription": "BNU_cst_2015^Guo.TaoMei",
  "ProtocolName": "ge_func_3x3x4_164",
  "PulseSequenceDetails": "%SiemensSeq%\\ep2d_bold",
  "ReceiveCoilName": "HeadMatrix",
  "ReconMatrixPE": 64,
  "RepetitionTime": 2,
  "SAR": 0.133858,
  "ScanOptions": "FS",
  "ScanningSequence": "EP",
  "SequenceName": "*epfid2d1_64",
  "SequenceVariant": "SK",
  "SeriesDescription": "ge_func_3x3x4_164",
  "SeriesNumber": 5,
  "ShimSetting": [-4537, -19399, -9842, 1063, -94, -454, -103, 35],
  "SliceThickness": 4,
  "SliceTiming": [0, 1.035, 0.0625, 1.095, 0.1225, 1.1575, 0.1825, 1.2175, 0.245, 1.2775, 0.305, 1.34, 0.365, 1.4, 0.4275, 1.46, 0.4875, 1.5225, 0.5475, 1.5825, 0.61, 1.6425, 0.67, 1.705, 0.73, 1.765, 0.7925, 1.825, 0.8525, 1.8875, 0.9125, 1.9475, 0.975],
  "SoftwareVersions": "syngo MR B17",
  "SpacingBetweenSlices": 4.6,
  "StationName": "MRC35193",
  "TaskName": "LanguageControl",
  "TotalReadoutTime": 0.0289803,
  "TxRefAmp": 310.406,
  "dcmmeta_affine": [
    [-3.125, 0.0, 0.0, 99.32530212402344],
    [0.0, 3.125, 0.0, -96.20030212402344],
    [0.0, 0.0, 4.599999904632568, -61.455421447753906],
    [0.0, 0.0, 0.0, 1.0]
],
  "dcmmeta_reorient_transform": [
    [0.0, -1.0, 0.0, 63.0],
    [1.0, 0.0, 0.0, 0.0],
    [0.0, 0.0, 1.0, 0.0],
    [0.0, 0.0, 0.0, 1.0]
],
  "dcmmeta_shape": [64, 64, 33, 164],
  "dcmmeta_slice_dim": 2,
  "dcmmeta_version": 0.6,
  "global": {
    "const": {
      "AcquisitionMatrix": [64, 0, 0, 64],
      "AngioFlag": "N",
      "BitsAllocated": 16,
      "BitsStored": 12,
      "Columns": 384,
      "EchoNumbers": 1,
      "EchoTime": 30.0,
      "EchoTrainLength": 1,
      "FlipAngle": 90.0,
      "HighBit": 11,
      "ImageOrientationPatient": [1.0, 0.0, 0.0, 0.0, 1.0, 0.0],
      "ImagePositionPatient": [-599.32530122995, -600.67469877005, -61.455421447754],
      "ImageType": [
        "ORIGINAL",
        "PRIMARY",
        "M",
        "ND",
        "MOSAIC"
],
      "ImagedNucleus": "1H",
      "ImagingFrequency": 123.253921,
      "InPlanePhaseEncodingDirection": "COL",
      "MRAcquisitionType": "2D",
      "MagneticFieldStrength": 3.0,
      "Manufacturer": "SIEMENS",
      "ManufacturerModelName": "TrioTim",
      "Modality": "MR",
      "NumberOfAverages": 1.0,
      "NumberOfPhaseEncodingSteps": 64,
      "PercentPhaseFieldOfView": 100.0,
      "PercentSampling": 100.0,
      "PerformedProcedureStepStartTime": "120756.234000",
      "PhotometricInterpretation": "MONOCHROME2",
      "PixelBandwidth": 2520.0,
      "PixelRepresentation": 0,
      "PixelSpacing": [3.125, 3.125],
      "ProtocolName": "ge_func_3x3x4_164",
      "RepetitionTime": 2000.0,
      "Rows": 384,
      "SAR": 0.13385809424282,
      "SamplesPerPixel": 1,
      "ScanOptions": "FS",
      "ScanningSequence": "EP",
      "SequenceName": "*epfid2d1_64",
      "SequenceVariant": "SK",
      "SeriesDescription": "ge_func_3x3x4_164",
      "SeriesNumber": 5,
      "SeriesTime": "122507.125000",
      "SliceLocation": -61.455421447754,
      "SliceThickness": 4.0,
      "SmallestImagePixelValue": 0,
      "SoftwareVersions": "syngo MR B17",
      "SpacingBetweenSlices": 4.5999999046326,
      "SpecificCharacterSet": "ISO_IR 100",
      "StudyID": "1",
      "StudyTime": "120756.140000",
      "TransmitCoilName": "Body",
      "VariableFlipAngleFlag": "N",
      "WindowCenterWidthExplanation": "Algo1",
      "dBdt": 0.0},
    "slices": {}
  },
  "time": {
    "samples": {
      "AcquisitionNumber": [1, 2, 3, 4, 5, 6, 7, 8, 9, 10, 11, 12, 13, 14, 15, 16, 17, 18, 19, 20, 21, 22, 23, 24, 25, 26, 27, 28, 29, 30, 31, 32, 33, 34, 35, 36, 37, 38, 39, 40, 41, 42, 43, 44, 45, 46, 47, 48, 49, 50, 51, 52, 53, 54, 55, 56, 57, 58, 59, 60, 61, 62, 63, 64, 65, 66, 67, 68, 69, 70, 71, 72, 73, 74, 75, 76, 77, 78, 79, 80, 81, 82, 83, 84, 85, 86, 87, 88, 89, 90, 91, 92, 93, 94, 95, 96, 97, 98, 99, 100, 101, 102, 103, 104, 105, 106, 107, 108, 109, 110, 111, 112, 113, 114, 115, 116, 117, 118, 119, 120, 121, 122, 123, 124, 125, 126, 127, 128, 129, 130, 131, 132, 133, 134, 135, 136, 137, 138, 139, 140, 141, 142, 143, 144, 145, 146, 147, 148, 149, 150, 151, 152, 153, 154, 155, 156, 157, 158, 159, 160, 161, 162, 163, 164],
      "AcquisitionTime": ["122422.627500", "122424.637500", "122426.645000", "122428.652500", "122430.660000", "122432.667500", "122434.677500", "122436.685000", "122438.692500", "122440.700000", "122442.707500", "122444.717500", "122446.725000", "122448.732500", "122450.740000", "122452.747500", "122454.757500", "122456.765000", "122458.772500", "122500.780000", "122502.790000", "122504.797500", "122506.805000", "122508.812500", "122510.820000", "122512.830000", "122514.837500", "122516.845000", "122518.852500", "122520.860000", "122522.870000", "122524.877500", "122526.885000", "122528.892500", "122530.902500", "122532.910000", "122534.917500", "122536.925000", "122538.932500", "122540.942500", "122542.950000", "122544.957500", "122546.965000", "122548.972500", "122550.982500", "122552.990000", "122554.997500", "122557.005000", "122559.015000", "122601.022500", "122603.030000", "122605.037500", "122607.045000", "122609.055000", "122611.062500", "122613.070000", "122615.077500", "122617.085000", "122619.095000", "122621.102500", "122623.110000", "122625.117500", "122627.125000", "122629.135000", "122631.142500", "122633.150000", "122635.157500", "122637.167500", "122639.175000", "122641.182500", "122643.190000", "122645.197500", "122647.207500", "122649.215000", "122651.222500", "122653.230000", "122655.237500", "122657.247500", "122659.255000", "122701.262500", "122703.270000", "122705.280000", "122707.287500", "122709.295000", "122711.302500", "122713.310000", "122715.320000", "122717.327500", "122719.335000", "122721.342500", "122723.350000", "122725.360000", "122727.367500", "122729.375000", "122731.382500", "122733.392500", "122735.400000", "122737.407500", "122739.415000", "122741.422500", "122743.432500", "122745.440000", "122747.447500", "122749.455000", "122751.462500", "122753.472500", "122755.480000", "122757.487500", "122759.495000", "122801.502500", "122803.512500", "122805.520000", "122807.527500", "122809.535000", "122811.545000", "122813.552500", "122815.560000", "122817.567500", "122819.575000", "122821.585000", "122823.592500", "122825.600000", "122827.607500", "122829.615000", "122831.625000", "122833.632500", "122835.640000", "122837.647500", "122839.657500", "122841.665000", "122843.672500", "122845.680000", "122847.687500", "122849.697500", "122851.705000", "122853.712500", "122855.720000", "122857.727500", "122859.737500", "122901.745000", "122903.752500", "122905.760000", "122907.770000", "122909.777500", "122911.785000", "122913.792500", "122915.800000", "122917.810000", "122919.817500", "122921.825000", "122923.832500", "122925.840000", "122927.850000", "122929.857500", "122931.865000", "122933.872500", "122935.882500", "122937.890000", "122939.897500", "122941.905000", "122943.912500", "122945.922500", "122947.930000", "122949.937500"],
      "ContentTime": ["122507.125000", "122507.125000", "122507.140000", "122507.140000", "122507.140000", "122507.140000", "122507.140000", "122507.140000", "122507.140000", "122507.140000", "122507.156000", "122507.156000", "122507.156000", "122507.156000", "122507.156000", "122507.156000", "122507.156000", "122507.156000", "122507.171000", "122507.171000", "122507.171000", "122547.109000", "122547.109000", "122547.109000", "122547.125000", "122547.125000", "122547.125000", "122547.125000", "122547.125000", "122547.125000", "122547.125000", "122547.125000", "122547.140000", "122547.140000", "122547.140000", "122547.140000", "122547.140000", "122547.140000", "122547.140000", "122547.140000", "122547.156000", "122627.109000", "122627.109000", "122627.109000", "122627.125000", "122627.125000", "122627.125000", "122627.125000", "122627.125000", "122627.125000", "122627.125000", "122627.125000", "122627.140000", "122627.140000", "122627.140000", "122627.140000", "122627.140000", "122627.140000", "122627.140000", "122627.140000", "122627.156000", "122707.109000", "122707.109000", "122707.109000", "122707.125000", "122707.125000", "122707.125000", "122707.125000", "122707.125000", "122707.125000", "122707.140000", "122707.140000", "122707.140000", "122707.140000", "122707.140000", "122707.156000", "122707.156000", "122707.156000", "122707.156000", "122707.156000", "122707.156000", "122747.109000", "122747.109000", "122747.125000", "122747.125000", "122747.125000", "122747.125000", "122747.125000", "122747.140000", "122747.156000", "122747.156000", "122747.156000", "122747.156000", "122747.156000", "122747.171000", "122747.171000", "122747.171000", "122747.171000", "122747.171000", "122747.171000", "122747.171000", "122827.109000", "122827.109000", "122827.109000", "122827.125000", "122827.125000", "122827.125000", "122827.125000", "122827.125000", "122827.125000", "122827.140000", "122827.140000", "122827.140000", "122827.140000", "122827.140000", "122827.156000", "122827.156000", "122827.156000", "122827.156000", "122827.156000", "122827.156000", "122907.109000", "122907.109000", "122907.109000", "122907.125000", "122907.125000", "122907.125000", "122907.125000", "122907.125000", "122907.125000", "122907.125000", "122907.125000", "122907.140000", "122907.140000", "122907.140000", "122907.140000", "122907.140000", "122907.140000", "122907.140000", "122907.140000", "122907.156000", "122947.109000", "122947.109000", "122947.109000", "122947.125000", "122947.125000", "122947.125000", "122947.125000", "122947.125000", "122947.125000", "122947.125000", "122947.140000", "122947.140000", "122947.140000", "122947.140000", "122947.140000", "122947.140000", "122947.156000", "122947.156000", "122947.156000", "122947.156000", "122951.734000", "122951.734000", "122951.734000"],
      "InstanceCreationTime": ["122507.125000", "122507.125000", "122507.140000", "122507.140000", "122507.140000", "122507.140000", "122507.140000", "122507.140000", "122507.140000", "122507.140000", "122507.156000", "122507.156000", "122507.156000", "122507.156000", "122507.156000", "122507.156000", "122507.156000", "122507.156000", "122507.171000", "122507.171000", "122507.171000", "122547.109000", "122547.109000", "122547.109000", "122547.125000", "122547.125000", "122547.125000", "122547.125000", "122547.125000", "122547.125000", "122547.125000", "122547.125000", "122547.140000", "122547.140000", "122547.140000", "122547.140000", "122547.140000", "122547.140000", "122547.140000", "122547.140000", "122547.156000", "122627.109000", "122627.109000", "122627.109000", "122627.125000", "122627.125000", "122627.125000", "122627.125000", "122627.125000", "122627.125000", "122627.125000", "122627.125000", "122627.140000", "122627.140000", "122627.140000", "122627.140000", "122627.140000", "122627.140000", "122627.140000", "122627.140000", "122627.156000", "122707.109000", "122707.109000", "122707.109000", "122707.125000", "122707.125000", "122707.125000", "122707.125000", "122707.125000", "122707.125000", "122707.140000", "122707.140000", "122707.140000", "122707.140000", "122707.140000", "122707.156000", "122707.156000", "122707.156000", "122707.156000", "122707.156000", "122707.156000", "122747.109000", "122747.109000", "122747.125000", "122747.125000", "122747.125000", "122747.125000", "122747.125000", "122747.140000", "122747.156000", "122747.156000", "122747.156000", "122747.156000", "122747.156000", "122747.171000", "122747.171000", "122747.171000", "122747.171000", "122747.171000", "122747.171000", "122747.171000", "122827.109000", "122827.109000", "122827.109000", "122827.125000", "122827.125000", "122827.125000", "122827.125000", "122827.125000", "122827.125000", "122827.140000", "122827.140000", "122827.140000", "122827.140000", "122827.140000", "122827.156000", "122827.156000", "122827.156000", "122827.156000", "122827.156000", "122827.156000", "122907.109000", "122907.109000", "122907.109000", "122907.125000", "122907.125000", "122907.125000", "122907.125000", "122907.125000", "122907.125000", "122907.125000", "122907.125000", "122907.140000", "122907.140000", "122907.140000", "122907.140000", "122907.140000", "122907.140000", "122907.140000", "122907.140000", "122907.156000", "122947.109000", "122947.109000", "122947.109000", "122947.125000", "122947.125000", "122947.125000", "122947.125000", "122947.125000", "122947.125000", "122947.125000", "122947.140000", "122947.140000", "122947.140000", "122947.140000", "122947.140000", "122947.140000", "122947.156000", "122947.156000", "122947.156000", "122947.156000", "122951.734000", "122951.734000", "122951.734000"],
      "InstanceNumber": [1, 2, 3, 4, 5, 6, 7, 8, 9, 10, 11, 12, 13, 14, 15, 16, 17, 18, 19, 20, 21, 22, 23, 24, 25, 26, 27, 28, 29, 30, 31, 32, 33, 34, 35, 36, 37, 38, 39, 40, 41, 42, 43, 44, 45, 46, 47, 48, 49, 50, 51, 52, 53, 54, 55, 56, 57, 58, 59, 60, 61, 62, 63, 64, 65, 66, 67, 68, 69, 70, 71, 72, 73, 74, 75, 76, 77, 78, 79, 80, 81, 82, 83, 84, 85, 86, 87, 88, 89, 90, 91, 92, 93, 94, 95, 96, 97, 98, 99, 100, 101, 102, 103, 104, 105, 106, 107, 108, 109, 110, 111, 112, 113, 114, 115, 116, 117, 118, 119, 120, 121, 122, 123, 124, 125, 126, 127, 128, 129, 130, 131, 132, 133, 134, 135, 136, 137, 138, 139, 140, 141, 142, 143, 144, 145, 146, 147, 148, 149, 150, 151, 152, 153, 154, 155, 156, 157, 158, 159, 160, 161, 162, 163, 164],
      "LargestImagePixelValue": [1934, 1890, 1847, 1832, 1799, 1785, 1799, 1785, 1814, 1783, 1838, 1776, 1846, 1859, 1880, 1850, 1872, 1885, 1885, 1876, 1912, 1928, 1931, 1954, 1930, 1972, 1921, 1952, 1906, 1967, 1953, 2007, 1967, 1965, 1986, 1945, 1976, 1996, 1993, 2003, 1998, 2008, 1987, 2020, 2007, 2006, 2013, 2016, 2009, 1995, 2023, 2026, 2001, 2025, 2036, 2013, 2042, 2051, 2000, 2042, 2064, 2073, 2057, 2053, 2021, 2037, 2055, 2020, 2029, 2038, 2045, 2058, 2060, 2047, 2058, 2045, 2050, 2024, 2044, 2023, 2045, 2053, 2056, 2076, 2038, 2065, 2053, 2067, 2057, 2068, 2071, 2069, 2061, 2085, 2049, 2076, 2074, 2061, 2087, 2068, 2063, 2069, 2065, 2069, 2063, 2030, 2054, 2039, 2056, 2042, 2059, 2055, 2067, 2063, 2059, 2072, 2084, 2086, 2078, 2064, 2051, 2067, 2084, 2094, 2090, 2084, 2064, 2073, 2080, 2071, 2069, 2075, 2054, 2072, 2072, 2089, 2085, 2094, 2089, 2083, 2066, 2079, 2063, 2069, 2080, 2063, 2058, 2088, 2078, 2079, 2077, 2068, 2081, 2088, 2081, 2072, 2063, 2063, 2051, 2064, 2076, 2072, 2070, 2072],
      "WindowCenter": [729.0, 727.0, 727.0, 727.0, 726.0, 725.0, 724.0, 724.0, 725.0, 725.0, 726.0, 726.0, 725.0, 726.0, 725.0, 725.0, 725.0, 725.0, 725.0, 726.0, 726.0, 727.0, 728.0, 727.0, 725.0, 725.0, 724.0, 726.0, 726.0, 727.0, 726.0, 727.0, 726.0, 725.0, 725.0, 725.0, 727.0, 727.0, 727.0, 725.0, 726.0, 726.0, 727.0, 725.0, 723.0, 724.0, 726.0, 727.0, 726.0, 725.0, 725.0, 725.0, 726.0, 726.0, 727.0, 727.0, 726.0, 726.0, 727.0, 727.0, 727.0, 726.0, 725.0, 724.0, 724.0, 724.0, 724.0, 725.0, 726.0, 727.0, 727.0, 727.0, 726.0, 725.0, 725.0, 724.0, 725.0, 727.0, 727.0, 727.0, 727.0, 726.0, 725.0, 725.0, 725.0, 725.0, 726.0, 725.0, 726.0, 726.0, 726.0, 726.0, 726.0, 726.0, 725.0, 726.0, 727.0, 726.0, 726.0, 726.0, 727.0, 726.0, 727.0, 727.0, 727.0, 727.0, 727.0, 726.0, 726.0, 726.0, 727.0, 727.0, 727.0, 727.0, 727.0, 727.0, 726.0, 726.0, 726.0, 726.0, 726.0, 726.0, 726.0, 725.0, 725.0, 726.0, 726.0, 727.0, 726.0, 726.0, 726.0, 726.0, 726.0, 727.0, 727.0, 727.0, 726.0, 724.0, 726.0, 726.0, 727.0, 727.0, 726.0, 726.0, 726.0, 726.0, 726.0, 726.0, 726.0, 726.0, 727.0, 728.0, 728.0, 727.0, 725.0, 724.0, 723.0, 724.0, 725.0, 726.0, 725.0, 725.0, 725.0, 725.0],
      "WindowWidth": [1589.0, 1583.0, 1583.0, 1582.0, 1579.0, 1577.0, 1575.0, 1574.0, 1576.0, 1578.0, 1580.0, 1578.0, 1577.0, 1579.0, 1578.0, 1577.0, 1577.0, 1577.0, 1578.0, 1579.0, 1581.0, 1583.0, 1586.0, 1585.0, 1578.0, 1577.0, 1575.0, 1580.0, 1580.0, 1582.0, 1581.0, 1584.0, 1581.0, 1577.0, 1577.0, 1578.0, 1582.0, 1583.0, 1583.0, 1579.0, 1580.0, 1580.0, 1583.0, 1579.0, 1573.0, 1575.0, 1580.0, 1583.0, 1582.0, 1579.0, 1579.0, 1578.0, 1581.0, 1582.0, 1584.0, 1583.0, 1580.0, 1580.0, 1583.0, 1583.0, 1584.0, 1580.0, 1577.0, 1576.0, 1575.0, 1576.0, 1576.0, 1577.0, 1580.0, 1583.0, 1583.0, 1582.0, 1580.0, 1578.0, 1578.0, 1576.0, 1580.0, 1583.0, 1585.0, 1583.0, 1583.0, 1582.0, 1579.0, 1579.0, 1579.0, 1579.0, 1580.0, 1579.0, 1580.0, 1580.0, 1580.0, 1581.0, 1582.0, 1581.0, 1579.0, 1581.0, 1584.0, 1582.0, 1579.0, 1581.0, 1583.0, 1582.0, 1583.0, 1583.0, 1582.0, 1584.0, 1583.0, 1579.0, 1580.0, 1581.0, 1584.0, 1584.0, 1583.0, 1583.0, 1584.0, 1585.0, 1582.0, 1580.0, 1581.0, 1581.0, 1580.0, 1581.0, 1580.0, 1580.0, 1579.0, 1580.0, 1582.0, 1583.0, 1582.0, 1582.0, 1581.0, 1580.0, 1581.0, 1584.0, 1584.0, 1583.0, 1580.0, 1577.0, 1580.0, 1582.0, 1584.0, 1583.0, 1580.0, 1581.0, 1581.0, 1580.0, 1582.0, 1581.0, 1581.0, 1580.0, 1583.0, 1587.0, 1587.0, 1584.0, 1578.0, 1575.0, 1574.0, 1575.0, 1578.0, 1580.0, 1579.0, 1579.0, 1579.0, 1579.0]
    },
    "slices": {}
  }
}