{
  "AcquisitionMatrixPE": 64,
  "AcquisitionNumber": 1,
  "AcquisitionTime": "12:30:24.202500",
  "BandwidthPerPixelPhaseEncode": 33.967,
  "BaseResolution": 64,
  "CoilCombinationMethod": "Sum of Squares",
  "CoilString": "C:HEA;HEP",
  "ConversionSoftware": "dcm2niix",
  "ConversionSoftwareVersion": "v1.0.20220720",
  "DerivedVendorReportedEchoSpacing": 0.000460005,
  "DeviceSerialNumber": "35193",
  "DwellTime": 3.1e-06,
  "EchoTime": 0.03,
  "EffectiveEchoSpacing": 0.000460005,
  "FlipAngle": 90,
  "HeudiconvVersion": "1.1.6",
  "ImageOrientationPatientDICOM": [1, 0, 0, 0, 1, 0],
  "ImageOrientationText": "Tra",
  "ImageType": [
    "ORIGINAL",
    "PRIMARY",
    "M",
    "ND",
    "MOSAIC"
],
  "ImagingFrequency": 123.254,
  "InPlanePhaseEncodingDirectionDICOM": "COL",
  "InstitutionAddress": "Xinjiekouwai Street No 19,Beijing,Haidian District,CN,100875",
  "InstitutionName": "BNU MRI Center",
  "InstitutionalDepartmentName": "Department",
  "MRAcquisitionType": "2D",
  "MagneticFieldStrength": 3,
  "Manufacturer": "Siemens",
  "ManufacturersModelName": "TrioTim",
  "MatrixCoilMode": "SENSE",
  "Modality": "MR",
  "NonlinearGradientCorrection": false,
  "PartialFourier": 1,
  "PatientPosition": "HFS",
  "PercentPhaseFOV": 100,
  "PercentSampling": 100,
  "PhaseEncodingDirection": "j-",
  "PhaseEncodingSteps": 64,
  "PhaseResolution": 1,
  "PixelBandwidth": 2520,
  "ProcedureStepDescription": "BNU_cst_2015^Guo.TaoMei",
  "ProtocolName": "ge_func_3x3x4_164",
  "PulseSequenceDetails": "%SiemensSeq%\\ep2d_bold",
  "ReceiveCoilName": "HeadMatrix",
  "ReconMatrixPE": 64,
  "RepetitionTime": 2,
  "SAR": 0.133858,
  "ScanOptions": "FS",
  "ScanningSequence": "EP",
  "SequenceName": "*epfid2d1_64",
  "SequenceVariant": "SK",
  "SeriesDescription": "ge_func_3x3x4_164",
  "SeriesNumber": 6,
  "ShimSetting": [-4537, -19399, -9842, 1063, -94, -454, -103, 35],
  "SliceThickness": 4,
  "SliceTiming": [0, 1.035, 0.06, 1.095, 0.1225, 1.155, 0.1825, 1.2175, 0.2425, 1.2775, 0.305, 1.3375, 0.365, 1.4, 0.425, 1.46, 0.4875, 1.52, 0.5475, 1.5825, 0.6075, 1.6425, 0.67, 1.7025, 0.73, 1.765, 0.79, 1.825, 0.8525, 1.885, 0.9125, 1.9475, 0.9725],
  "SoftwareVersions": "syngo MR B17",
  "SpacingBetweenSlices": 4.6,
  "StationName": "MRC35193",
  "TaskName": "LanguageControl",
  "TotalReadoutTime": 0.0289803,
  "TxRefAmp": 310.406,
  "dcmmeta_affine": [
    [-3.125, 0.0, 0.0, 99.32530212402344],
    [0.0, 3.125, 0.0, -96.20030212402344],
    [0.0, 0.0, 4.599999904632568, -61.455421447753906],
    [0.0, 0.0, 0.0, 1.0]
],
  "dcmmeta_reorient_transform": [
    [0.0, -1.0, 0.0, 63.0],
    [1.0, 0.0, 0.0, 0.0],
    [0.0, 0.0, 1.0, 0.0],
    [0.0, 0.0, 0.0, 1.0]
],
  "dcmmeta_shape": [64, 64, 33, 164],
  "dcmmeta_slice_dim": 2,
  "dcmmeta_version": 0.6,
  "global": {
    "const": {
      "AcquisitionMatrix": [64, 0, 0, 64],
      "AngioFlag": "N",
      "BitsAllocated": 16,
      "BitsStored": 12,
      "Columns": 384,
      "EchoNumbers": 1,
      "EchoTime": 30.0,
      "EchoTrainLength": 1,
      "FlipAngle": 90.0,
      "HighBit": 11,
      "ImageOrientationPatient": [1.0, 0.0, 0.0, 0.0, 1.0, 0.0],
      "ImagePositionPatient": [-599.32530122995, -600.67469877005, -61.455421447754],
      "ImageType": [
        "ORIGINAL",
        "PRIMARY",
        "M",
        "ND",
        "MOSAIC"
],
      "ImagedNucleus": "1H",
      "ImagingFrequency": 123.253923,
      "InPlanePhaseEncodingDirection": "COL",
      "MRAcquisitionType": "2D",
      "MagneticFieldStrength": 3.0,
      "Manufacturer": "SIEMENS",
      "ManufacturerModelName": "TrioTim",
      "Modality": "MR",
      "NumberOfAverages": 1.0,
      "NumberOfPhaseEncodingSteps": 64,
      "PercentPhaseFieldOfView": 100.0,
      "PercentSampling": 100.0,
      "PerformedProcedureStepStartTime": "120756.234000",
      "PhotometricInterpretation": "MONOCHROME2",
      "PixelBandwidth": 2520.0,
      "PixelRepresentation": 0,
      "PixelSpacing": [3.125, 3.125],
      "ProtocolName": "ge_func_3x3x4_164",
      "RepetitionTime": 2000.0,
      "Rows": 384,
      "SAR": 0.13385809424282,
      "SamplesPerPixel": 1,
      "ScanOptions": "FS",
      "ScanningSequence": "EP",
      "SequenceName": "*epfid2d1_64",
      "SequenceVariant": "SK",
      "SeriesDescription": "ge_func_3x3x4_164",
      "SeriesNumber": 6,
      "SeriesTime": "123116.406000",
      "SliceLocation": -61.455421447754,
      "SliceThickness": 4.0,
      "SmallestImagePixelValue": 0,
      "SoftwareVersions": "syngo MR B17",
      "SpacingBetweenSlices": 4.5999999046326,
      "SpecificCharacterSet": "ISO_IR 100",
      "StudyID": "1",
      "StudyTime": "120756.140000",
      "TransmitCoilName": "Body",
      "VariableFlipAngleFlag": "N",
      "WindowCenterWidthExplanation": "Algo1",
      "dBdt": 0.0},
    "slices": {}
  },
  "time": {
    "samples": {
      "AcquisitionNumber": [1, 2, 3, 4, 5, 6, 7, 8, 9, 10, 11, 12, 13, 14, 15, 16, 17, 18, 19, 20, 21, 22, 23, 24, 25, 26, 27, 28, 29, 30, 31, 32, 33, 34, 35, 36, 37, 38, 39, 40, 41, 42, 43, 44, 45, 46, 47, 48, 49, 50, 51, 52, 53, 54, 55, 56, 57, 58, 59, 60, 61, 62, 63, 64, 65, 66, 67, 68, 69, 70, 71, 72, 73, 74, 75, 76, 77, 78, 79, 80, 81, 82, 83, 84, 85, 86, 87, 88, 89, 90, 91, 92, 93, 94, 95, 96, 97, 98, 99, 100, 101, 102, 103, 104, 105, 106, 107, 108, 109, 110, 111, 112, 113, 114, 115, 116, 117, 118, 119, 120, 121, 122, 123, 124, 125, 126, 127, 128, 129, 130, 131, 132, 133, 134, 135, 136, 137, 138, 139, 140, 141, 142, 143, 144, 145, 146, 147, 148, 149, 150, 151, 152, 153, 154, 155, 156, 157, 158, 159, 160, 161, 162, 163, 164],
      "AcquisitionTime": ["123024.202500", "123026.210000", "123028.220000", "123030.227500", "123032.235000", "123034.242500", "123036.250000", "123038.260000", "123040.267500", "123042.275000", "123044.282500", "123046.290000", "123048.300000", "123050.307500", "123052.315000", "123054.322500", "123056.332500", "123058.340000", "123100.347500", "123102.355000", "123104.362500", "123106.372500", "123108.380000", "123110.387500", "123112.395000", "123114.402500", "123116.412500", "123118.420000", "123120.427500", "123122.435000", "123124.442500", "123126.452500", "123128.460000", "123130.467500", "123132.475000", "123134.485000", "123136.492500", "123138.500000", "123140.507500", "123142.515000", "123144.525000", "123146.532500", "123148.540000", "123150.547500", "123152.555000", "123154.565000", "123156.572500", "123158.580000", "123200.587500", "123202.597500", "123204.605000", "123206.612500", "123208.620000", "123210.627500", "123212.637500", "123214.645000", "123216.652500", "123218.660000", "123220.667500", "123222.677500", "123224.685000", "123226.692500", "123228.700000", "123230.710000", "123232.717500", "123234.725000", "123236.732500", "123238.740000", "123240.750000", "123242.757500", "123244.765000", "123246.772500", "123248.780000", "123250.790000", "123252.797500", "123254.805000", "123256.812500", "123258.820000", "123300.830000", "123302.837500", "123304.845000", "123306.852500", "123308.862500", "123310.870000", "123312.877500", "123314.885000", "123316.892500", "123318.902500", "123320.910000", "123322.917500", "123324.925000", "123326.932500", "123328.942500", "123330.950000", "123332.957500", "123334.965000", "123336.975000", "123338.982500", "123340.990000", "123342.997500", "123345.005000", "123347.015000", "123349.022500", "123351.030000", "123353.037500", "123355.045000", "123357.055000", "123359.062500", "123401.070000", "123403.077500", "123405.087500", "123407.095000", "123409.102500", "123411.110000", "123413.117500", "123415.127500", "123417.135000", "123419.142500", "123421.150000", "123423.157500", "123425.167500", "123427.175000", "123429.182500", "123431.190000", "123433.197500", "123435.207500", "123437.215000", "123439.222500", "123441.230000", "123443.240000", "123445.247500", "123447.255000", "123449.262500", "123451.270000", "123453.280000", "123455.287500", "123457.295000", "123459.302500", "123501.310000", "123503.320000", "123505.327500", "123507.335000", "123509.342500", "123511.352500", "123513.360000", "123515.367500", "123517.375000", "123519.382500", "123521.392500", "123523.400000", "123525.407500", "123527.415000", "123529.422500", "123531.432500", "123533.440000", "123535.447500", "123537.455000", "123539.465000", "123541.472500", "123543.480000", "123545.487500", "123547.495000", "123549.505000", "123551.512500"],
      "ContentTime": ["123116.421000", "123116.421000", "123116.421000", "123116.421000", "123116.421000", "123116.421000", "123116.421000", "123116.421000", "123116.437000", "123116.437000", "123116.437000", "123116.437000", "123116.437000", "123116.437000", "123116.437000", "123116.453000", "123116.453000", "123116.453000", "123116.453000", "123116.453000", "123116.453000", "123116.453000", "123116.468000", "123116.468000", "123116.468000", "123156.406000", "123156.406000", "123156.406000", "123156.421000", "123156.421000", "123156.421000", "123156.421000", "123156.421000", "123156.421000", "123156.421000", "123156.421000", "123156.421000", "123156.437000", "123156.437000", "123156.437000", "123156.437000", "123156.453000", "123156.453000", "123156.453000", "123156.453000", "123236.406000", "123236.406000", "123236.406000", "123236.421000", "123236.421000", "123236.421000", "123236.421000", "123236.421000", "123236.421000", "123236.437000", "123236.437000", "123236.437000", "123236.437000", "123236.437000", "123236.437000", "123236.437000", "123236.437000", "123236.453000", "123236.453000", "123236.453000", "123316.406000", "123316.406000", "123316.406000", "123316.421000", "123316.421000", "123316.421000", "123316.421000", "123316.421000", "123316.437000", "123316.437000", "123316.437000", "123316.437000", "123316.437000", "123316.437000", "123316.437000", "123316.437000", "123316.453000", "123316.453000", "123316.453000", "123316.453000", "123336.406000", "123336.406000", "123336.406000", "123336.406000", "123336.421000", "123336.421000", "123336.421000", "123336.421000", "123336.421000", "123336.421000", "123416.406000", "123416.406000", "123416.406000", "123416.421000", "123416.421000", "123416.421000", "123416.421000", "123416.421000", "123416.421000", "123416.421000", "123416.421000", "123416.437000", "123416.437000", "123416.437000", "123416.437000", "123416.437000", "123416.437000", "123416.437000", "123416.437000", "123416.437000", "123456.406000", "123456.406000", "123456.406000", "123456.421000", "123456.421000", "123456.421000", "123456.421000", "123456.421000", "123456.421000", "123456.421000", "123456.437000", "123456.437000", "123456.437000", "123456.437000", "123456.437000", "123456.437000", "123456.453000", "123456.453000", "123456.453000", "123456.453000", "123536.406000", "123536.406000", "123536.421000", "123536.421000", "123536.421000", "123536.421000", "123536.437000", "123536.437000", "123536.437000", "123536.437000", "123536.437000", "123536.437000", "123536.453000", "123536.453000", "123536.453000", "123536.453000", "123536.453000", "123536.468000", "123536.468000", "123536.468000", "123552.921000", "123552.921000", "123552.921000", "123552.921000", "123552.937000", "123552.937000", "123552.937000", "123552.937000", "123552.937000"],
      "InstanceCreationTime": ["123116.421000", "123116.421000", "123116.421000", "123116.421000", "123116.421000", "123116.421000", "123116.421000", "123116.421000", "123116.437000", "123116.437000", "123116.437000", "123116.437000", "123116.437000", "123116.437000", "123116.437000", "123116.453000", "123116.453000", "123116.453000", "123116.453000", "123116.453000", "123116.453000", "123116.453000", "123116.468000", "123116.468000", "123116.468000", "123156.406000", "123156.406000", "123156.406000", "123156.421000", "123156.421000", "123156.421000", "123156.421000", "123156.421000", "123156.421000", "123156.421000", "123156.421000", "123156.421000", "123156.437000", "123156.437000", "123156.437000", "123156.437000", "123156.453000", "123156.453000", "123156.453000", "123156.453000", "123236.406000", "123236.406000", "123236.406000", "123236.421000", "123236.421000", "123236.421000", "123236.421000", "123236.421000", "123236.421000", "123236.437000", "123236.437000", "123236.437000", "123236.437000", "123236.437000", "123236.437000", "123236.437000", "123236.437000", "123236.453000", "123236.453000", "123236.453000", "123316.406000", "123316.406000", "123316.406000", "123316.421000", "123316.421000", "123316.421000", "123316.421000", "123316.421000", "123316.437000", "123316.437000", "123316.437000", "123316.437000", "123316.437000", "123316.437000", "123316.437000", "123316.437000", "123316.453000", "123316.453000", "123316.453000", "123316.453000", "123336.406000", "123336.406000", "123336.406000", "123336.406000", "123336.421000", "123336.421000", "123336.421000", "123336.421000", "123336.421000", "123336.421000", "123416.406000", "123416.406000", "123416.406000", "123416.421000", "123416.421000", "123416.421000", "123416.421000", "123416.421000", "123416.421000", "123416.421000", "123416.421000", "123416.437000", "123416.437000", "123416.437000", "123416.437000", "123416.437000", "123416.437000", "123416.437000", "123416.437000", "123416.437000", "123456.406000", "123456.406000", "123456.406000", "123456.421000", "123456.421000", "123456.421000", "123456.421000", "123456.421000", "123456.421000", "123456.421000", "123456.437000", "123456.437000", "123456.437000", "123456.437000", "123456.437000", "123456.437000", "123456.453000", "123456.453000", "123456.453000", "123456.453000", "123536.406000", "123536.406000", "123536.421000", "123536.421000", "123536.421000", "123536.421000", "123536.437000", "123536.437000", "123536.437000", "123536.437000", "123536.437000", "123536.437000", "123536.453000", "123536.453000", "123536.453000", "123536.453000", "123536.453000", "123536.468000", "123536.468000", "123536.468000", "123552.921000", "123552.921000", "123552.921000", "123552.921000", "123552.937000", "123552.937000", "123552.937000", "123552.937000", "123552.937000"],
      "InstanceNumber": [1, 2, 3, 4, 5, 6, 7, 8, 9, 10, 11, 12, 13, 14, 15, 16, 17, 18, 19, 20, 21, 22, 23, 24, 25, 26, 27, 28, 29, 30, 31, 32, 33, 34, 35, 36, 37, 38, 39, 40, 41, 42, 43, 44, 45, 46, 47, 48, 49, 50, 51, 52, 53, 54, 55, 56, 57, 58, 59, 60, 61, 62, 63, 64, 65, 66, 67, 68, 69, 70, 71, 72, 73, 74, 75, 76, 77, 78, 79, 80, 81, 82, 83, 84, 85, 86, 87, 88, 89, 90, 91, 92, 93, 94, 95, 96, 97, 98, 99, 100, 101, 102, 103, 104, 105, 106, 107, 108, 109, 110, 111, 112, 113, 114, 115, 116, 117, 118, 119, 120, 121, 122, 123, 124, 125, 126, 127, 128, 129, 130, 131, 132, 133, 134, 135, 136, 137, 138, 139, 140, 141, 142, 143, 144, 145, 146, 147, 148, 149, 150, 151, 152, 153, 154, 155, 156, 157, 158, 159, 160, 161, 162, 163, 164],
      "LargestImagePixelValue": [2212, 2118, 2071, 2105, 2050, 2080, 2057, 2074, 2051, 2054, 2048, 2070, 2059, 2068, 2072, 2055, 2066, 2068, 2077, 2058, 2067, 2073, 2060, 2066, 2079, 2065, 2053, 2046, 2049, 2039, 2054, 2065, 2078, 2073, 2070, 2046, 2059, 2051, 2048, 2059, 2088, 2067, 2070, 2060, 2097, 2074, 2078, 2060, 2053, 2053, 2055, 2061, 2082, 2086, 2080, 2027, 2051, 2067, 2064, 2068, 2055, 2063, 2076, 2059, 2068, 2056, 2063, 2055, 2067, 2065, 2057, 2085, 2066, 2045, 2053, 2064, 2058, 2081, 2053, 2059, 2060, 2084, 2075, 2060, 2062, 2071, 2062, 2059, 2059, 2064, 2042, 2070, 2062, 2062, 2069, 2052, 2067, 2075, 2071, 2065, 2059, 2068, 2054, 2063, 2057, 2071, 2075, 2057, 2083, 2064, 2076, 2106, 2066, 2083, 2082, 2072, 2077, 2031, 2088, 2088, 2099, 2084, 2064, 2066, 2095, 2081, 2060, 2081, 2108, 2059, 2069, 2068, 2095, 2095, 2083, 2070, 2083, 2076, 2072, 2092, 2071, 2068, 2069, 2072, 2060, 2087, 2076, 2077, 2094, 2052, 2084, 2097, 2060, 2081, 2064, 2074, 2085, 2094, 2090, 2080, 2067, 2072, 2061, 2095],
      "WindowCenter": [733.0, 730.0, 728.0, 728.0, 727.0, 727.0, 726.0, 726.0, 726.0, 726.0, 727.0, 727.0, 726.0, 725.0, 726.0, 726.0, 725.0, 724.0, 725.0, 726.0, 725.0, 725.0, 725.0, 726.0, 726.0, 726.0, 725.0, 725.0, 725.0, 725.0, 725.0, 726.0, 726.0, 725.0, 726.0, 725.0, 727.0, 728.0, 727.0, 727.0, 725.0, 725.0, 726.0, 726.0, 725.0, 725.0, 725.0, 725.0, 725.0, 726.0, 727.0, 727.0, 727.0, 725.0, 725.0, 726.0, 726.0, 726.0, 727.0, 727.0, 727.0, 726.0, 726.0, 725.0, 727.0, 727.0, 727.0, 726.0, 726.0, 727.0, 727.0, 727.0, 727.0, 726.0, 727.0, 728.0, 727.0, 727.0, 726.0, 727.0, 726.0, 726.0, 726.0, 726.0, 727.0, 727.0, 726.0, 725.0, 727.0, 727.0, 727.0, 727.0, 726.0, 726.0, 727.0, 727.0, 727.0, 727.0, 727.0, 726.0, 726.0, 726.0, 725.0, 725.0, 725.0, 725.0, 725.0, 726.0, 726.0, 726.0, 727.0, 728.0, 727.0, 727.0, 727.0, 727.0, 727.0, 728.0, 727.0, 727.0, 728.0, 727.0, 727.0, 727.0, 727.0, 726.0, 725.0, 726.0, 727.0, 727.0, 726.0, 727.0, 728.0, 726.0, 725.0, 726.0, 726.0, 726.0, 726.0, 726.0, 727.0, 727.0, 727.0, 727.0, 726.0, 726.0, 726.0, 728.0, 727.0, 727.0, 727.0, 727.0, 727.0, 727.0, 727.0, 728.0, 728.0, 729.0, 728.0, 727.0, 726.0, 727.0, 728.0, 728.0],
      "WindowWidth": [1601.0, 1592.0, 1586.0, 1586.0, 1584.0, 1583.0, 1581.0, 1580.0, 1580.0, 1582.0, 1583.0, 1583.0, 1580.0, 1578.0, 1582.0, 1580.0, 1577.0, 1576.0, 1577.0, 1580.0, 1578.0, 1579.0, 1577.0, 1581.0, 1582.0, 1580.0, 1578.0, 1579.0, 1578.0, 1577.0, 1578.0, 1581.0, 1581.0, 1579.0, 1579.0, 1579.0, 1583.0, 1586.0, 1584.0, 1583.0, 1578.0, 1579.0, 1580.0, 1582.0, 1579.0, 1577.0, 1578.0, 1579.0, 1578.0, 1580.0, 1583.0, 1584.0, 1583.0, 1579.0, 1579.0, 1580.0, 1582.0, 1582.0, 1583.0, 1584.0, 1584.0, 1582.0, 1580.0, 1578.0, 1583.0, 1583.0, 1583.0, 1580.0, 1582.0, 1584.0, 1584.0, 1584.0, 1583.0, 1582.0, 1585.0, 1587.0, 1584.0, 1583.0, 1580.0, 1582.0, 1581.0, 1582.0, 1581.0, 1582.0, 1583.0, 1583.0, 1580.0, 1579.0, 1583.0, 1584.0, 1583.0, 1583.0, 1580.0, 1582.0, 1583.0, 1584.0, 1585.0, 1584.0, 1583.0, 1581.0, 1581.0, 1581.0, 1579.0, 1578.0, 1578.0, 1577.0, 1578.0, 1580.0, 1582.0, 1582.0, 1583.0, 1586.0, 1584.0, 1585.0, 1583.0, 1583.0, 1585.0, 1586.0, 1585.0, 1585.0, 1587.0, 1585.0, 1584.0, 1584.0, 1583.0, 1581.0, 1579.0, 1581.0, 1584.0, 1584.0, 1582.0, 1585.0, 1586.0, 1582.0, 1578.0, 1580.0, 1582.0, 1581.0, 1581.0, 1582.0, 1584.0, 1583.0, 1583.0, 1585.0, 1582.0, 1581.0, 1580.0, 1586.0, 1585.0, 1583.0, 1584.0, 1585.0, 1583.0, 1583.0, 1583.0, 1586.0, 1587.0, 1588.0, 1586.0, 1582.0, 1582.0, 1584.0, 1585.0, 1586.0]
    },
    "slices": {}
  }
}