{
  "AcquisitionMatrixPE": 64,
  "AcquisitionNumber": 1,
  "AcquisitionTime": "12:18:3.877500",
  "BandwidthPerPixelPhaseEncode": 33.967,
  "BaseResolution": 64,
  "CoilCombinationMethod": "Sum of Squares",
  "CoilString": "C:HEA;HEP",
  "ConversionSoftware": "dcm2niix",
  "ConversionSoftwareVersion": "v1.0.20220720",
  "DerivedVendorReportedEchoSpacing": 0.000460005,
  "DeviceSerialNumber": "35193",
  "DwellTime": 3.1e-06,
  "EchoTime": 0.03,
  "EffectiveEchoSpacing": 0.000460005,
  "FlipAngle": 90,
  "HeudiconvVersion": "1.1.6",
  "ImageOrientationPatientDICOM": [1, 0, 0, 0, 1, 0],
  "ImageOrientationText": "Tra",
  "ImageType": [
    "ORIGINAL",
    "PRIMARY",
    "M",
    "ND",
    "MOSAIC"
],
  "ImagingFrequency": 123.254,
  "InPlanePhaseEncodingDirectionDICOM": "COL",
  "InstitutionAddress": "Xinjiekouwai Street No 19,Beijing,Haidian District,CN,100875",
  "InstitutionName": "BNU MRI Center",
  "InstitutionalDepartmentName": "Department",
  "MRAcquisitionType": "2D",
  "MagneticFieldStrength": 3,
  "Manufacturer": "Siemens",
  "ManufacturersModelName": "TrioTim",
  "MatrixCoilMode": "SENSE",
  "Modality": "MR",
  "NonlinearGradientCorrection": false,
  "PartialFourier": 1,
  "PatientPosition": "HFS",
  "PercentPhaseFOV": 100,
  "PercentSampling": 100,
  "PhaseEncodingDirection": "j-",
  "PhaseEncodingSteps": 64,
  "PhaseResolution": 1,
  "PixelBandwidth": 2520,
  "ProcedureStepDescription": "BNU_cst_2015^Guo.TaoMei",
  "ProtocolName": "ge_func_3x3x4_164",
  "PulseSequenceDetails": "%SiemensSeq%\\ep2d_bold",
  "ReceiveCoilName": "HeadMatrix",
  "ReconMatrixPE": 64,
  "RepetitionTime": 2,
  "SAR": 0.133858,
  "ScanOptions": "FS",
  "ScanningSequence": "EP",
  "SequenceName": "*epfid2d1_64",
  "SequenceVariant": "SK",
  "SeriesDescription": "ge_func_3x3x4_164",
  "SeriesNumber": 4,
  "ShimSetting": [-4537, -19399, -9842, 1063, -94, -454, -103, 35],
  "SliceThickness": 4,
  "SliceTiming": [0, 1.035, 0.0625, 1.095, 0.1225, 1.1575, 0.1825, 1.2175, 0.245, 1.2775, 0.305, 1.34, 0.365, 1.4, 0.4275, 1.46, 0.4875, 1.5225, 0.5475, 1.5825, 0.61, 1.6425, 0.67, 1.705, 0.73, 1.765, 0.7925, 1.825, 0.8525, 1.8875, 0.9125, 1.9475, 0.975],
  "SoftwareVersions": "syngo MR B17",
  "SpacingBetweenSlices": 4.6,
  "StationName": "MRC35193",
  "TaskName": "CognitiveControl",
  "TotalReadoutTime": 0.0289803,
  "TxRefAmp": 310.406,
  "dcmmeta_affine": [
    [-3.125, 0.0, 0.0, 99.32530212402344],
    [0.0, 3.125, 0.0, -96.20030212402344],
    [0.0, 0.0, 4.599999904632568, -61.455421447753906],
    [0.0, 0.0, 0.0, 1.0]
],
  "dcmmeta_reorient_transform": [
    [0.0, -1.0, 0.0, 63.0],
    [1.0, 0.0, 0.0, 0.0],
    [0.0, 0.0, 1.0, 0.0],
    [0.0, 0.0, 0.0, 1.0]
],
  "dcmmeta_shape": [64, 64, 33, 164],
  "dcmmeta_slice_dim": 2,
  "dcmmeta_version": 0.6,
  "global": {
    "const": {
      "AcquisitionMatrix": [64, 0, 0, 64],
      "AngioFlag": "N",
      "BitsAllocated": 16,
      "BitsStored": 12,
      "Columns": 384,
      "EchoNumbers": 1,
      "EchoTime": 30.0,
      "EchoTrainLength": 1,
      "FlipAngle": 90.0,
      "HighBit": 11,
      "ImageOrientationPatient": [1.0, 0.0, 0.0, 0.0, 1.0, 0.0],
      "ImagePositionPatient": [-599.32530122995, -600.67469877005, -61.455421447754],
      "ImageType": [
        "ORIGINAL",
        "PRIMARY",
        "M",
        "ND",
        "MOSAIC"
],
      "ImagedNucleus": "1H",
      "ImagingFrequency": 123.253916,
      "InPlanePhaseEncodingDirection": "COL",
      "MRAcquisitionType": "2D",
      "MagneticFieldStrength": 3.0,
      "Manufacturer": "SIEMENS",
      "ManufacturerModelName": "TrioTim",
      "Modality": "MR",
      "NumberOfAverages": 1.0,
      "NumberOfPhaseEncodingSteps": 64,
      "PercentPhaseFieldOfView": 100.0,
      "PercentSampling": 100.0,
      "PerformedProcedureStepStartTime": "120756.234000",
      "PhotometricInterpretation": "MONOCHROME2",
      "PixelBandwidth": 2520.0,
      "PixelRepresentation": 0,
      "PixelSpacing": [3.125, 3.125],
      "ProtocolName": "ge_func_3x3x4_164",
      "RepetitionTime": 2000.0,
      "Rows": 384,
      "SAR": 0.13385809424282,
      "SamplesPerPixel": 1,
      "ScanOptions": "FS",
      "ScanningSequence": "EP",
      "SequenceName": "*epfid2d1_64",
      "SequenceVariant": "SK",
      "SeriesDescription": "ge_func_3x3x4_164",
      "SeriesNumber": 4,
      "SeriesTime": "121856.609000",
      "SliceLocation": -61.455421447754,
      "SliceThickness": 4.0,
      "SmallestImagePixelValue": 0,
      "SoftwareVersions": "syngo MR B17",
      "SpacingBetweenSlices": 4.5999999046326,
      "SpecificCharacterSet": "ISO_IR 100",
      "StudyID": "1",
      "StudyTime": "120756.140000",
      "TransmitCoilName": "Body",
      "VariableFlipAngleFlag": "N",
      "WindowCenterWidthExplanation": "Algo1",
      "dBdt": 0.0},
    "slices": {}
  },
  "time": {
    "samples": {
      "AcquisitionNumber": [1, 2, 3, 4, 5, 6, 7, 8, 9, 10, 11, 12, 13, 14, 15, 16, 17, 18, 19, 20, 21, 22, 23, 24, 25, 26, 27, 28, 29, 30, 31, 32, 33, 34, 35, 36, 37, 38, 39, 40, 41, 42, 43, 44, 45, 46, 47, 48, 49, 50, 51, 52, 53, 54, 55, 56, 57, 58, 59, 60, 61, 62, 63, 64, 65, 66, 67, 68, 69, 70, 71, 72, 73, 74, 75, 76, 77, 78, 79, 80, 81, 82, 83, 84, 85, 86, 87, 88, 89, 90, 91, 92, 93, 94, 95, 96, 97, 98, 99, 100, 101, 102, 103, 104, 105, 106, 107, 108, 109, 110, 111, 112, 113, 114, 115, 116, 117, 118, 119, 120, 121, 122, 123, 124, 125, 126, 127, 128, 129, 130, 131, 132, 133, 134, 135, 136, 137, 138, 139, 140, 141, 142, 143, 144, 145, 146, 147, 148, 149, 150, 151, 152, 153, 154, 155, 156, 157, 158, 159, 160, 161, 162, 163, 164],
      "AcquisitionTime": ["121803.877500", "121805.887500", "121807.895000", "121809.902500", "121811.910000", "121813.920000", "121815.927500", "121817.935000", "121819.942500", "121821.950000", "121823.960000", "121825.967500", "121827.975000", "121829.982500", "121831.990000", "121834.000000", "121836.007500", "121838.015000", "121840.022500", "121842.032500", "121844.040000", "121846.047500", "121848.055000", "121850.062500", "121852.072500", "121854.080000", "121856.087500", "121858.095000", "121900.102500", "121902.112500", "121904.120000", "121906.127500", "121908.135000", "121910.142500", "121912.152500", "121914.160000", "121916.167500", "121918.175000", "121920.185000", "121922.192500", "121924.200000", "121926.207500", "121928.215000", "121930.225000", "121932.232500", "121934.240000", "121936.247500", "121938.255000", "121940.265000", "121942.272500", "121944.280000", "121946.287500", "121948.297500", "121950.305000", "121952.312500", "121954.320000", "121956.327500", "121958.337500", "122000.345000", "122002.352500", "122004.360000", "122006.367500", "122008.377500", "122010.385000", "122012.392500", "122014.400000", "122016.410000", "122018.417500", "122020.425000", "122022.432500", "122024.440000", "122026.450000", "122028.457500", "122030.465000", "122032.472500", "122034.480000", "122036.490000", "122038.497500", "122040.505000", "122042.512500", "122044.520000", "122046.530000", "122048.537500", "122050.545000", "122052.552500", "122054.562500", "122056.570000", "122058.577500", "122100.585000", "122102.592500", "122104.602500", "122106.610000", "122108.617500", "122110.625000", "122112.632500", "122114.642500", "122116.650000", "122118.657500", "122120.665000", "122122.675000", "122124.682500", "122126.690000", "122128.697500", "122130.705000", "122132.715000", "122134.722500", "122136.730000", "122138.737500", "122140.745000", "122142.755000", "122144.762500", "122146.770000", "122148.777500", "122150.787500", "122152.795000", "122154.802500", "122156.810000", "122158.817500", "122200.827500", "122202.835000", "122204.842500", "122206.850000", "122208.857500", "122210.867500", "122212.875000", "122214.882500", "122216.890000", "122218.900000", "122220.907500", "122222.915000", "122224.922500", "122226.930000", "122228.940000", "122230.947500", "122232.955000", "122234.962500", "122236.970000", "122238.980000", "122240.987500", "122242.995000", "122245.002500", "122247.010000", "122249.020000", "122251.027500", "122253.035000", "122255.042500", "122257.052500", "122259.060000", "122301.067500", "122303.075000", "122305.082500", "122307.092500", "122309.100000", "122311.107500", "122313.115000", "122315.122500", "122317.132500", "122319.140000", "122321.147500", "122323.155000", "122325.165000", "122327.172500", "122329.180000", "122331.187500"],
      "ContentTime": ["121856.625000", "121856.625000", "121856.625000", "121856.625000", "121856.625000", "121856.625000", "121856.625000", "121856.640000", "121856.640000", "121856.640000", "121856.640000", "121856.640000", "121856.640000", "121856.640000", "121856.640000", "121856.656000", "121856.656000", "121856.656000", "121856.656000", "121856.656000", "121856.656000", "121856.656000", "121856.656000", "121856.671000", "121856.671000", "121936.609000", "121936.609000", "121936.609000", "121936.625000", "121936.625000", "121936.625000", "121936.625000", "121936.625000", "121936.625000", "121936.625000", "121936.625000", "121936.640000", "121936.640000", "121936.640000", "121936.640000", "121936.656000", "121936.656000", "121936.656000", "121936.656000", "121936.656000", "122016.609000", "122016.609000", "122016.609000", "122016.625000", "122016.625000", "122016.625000", "122016.625000", "122016.625000", "122016.640000", "122016.640000", "122016.640000", "122016.656000", "122016.656000", "122016.656000", "122016.656000", "122016.656000", "122016.656000", "122016.656000", "122016.656000", "122016.671000", "122056.609000", "122056.609000", "122056.609000", "122056.625000", "122056.625000", "122056.625000", "122056.625000", "122056.625000", "122056.625000", "122056.625000", "122056.625000", "122056.640000", "122056.640000", "122056.640000", "122056.640000", "122056.640000", "122056.640000", "122056.640000", "122056.656000", "122056.656000", "122136.609000", "122136.609000", "122136.625000", "122136.625000", "122136.625000", "122136.625000", "122136.625000", "122136.640000", "122136.640000", "122136.640000", "122136.640000", "122136.640000", "122136.656000", "122136.656000", "122136.656000", "122136.656000", "122136.656000", "122136.656000", "122136.656000", "122136.671000", "122216.609000", "122216.609000", "122216.609000", "122216.625000", "122216.625000", "122216.625000", "122216.625000", "122216.625000", "122216.625000", "122216.625000", "122216.640000", "122216.640000", "122216.640000", "122216.640000", "122216.640000", "122216.640000", "122216.640000", "122216.640000", "122216.656000", "122216.656000", "122256.609000", "122256.609000", "122256.609000", "122256.625000", "122256.625000", "122256.625000", "122256.625000", "122256.640000", "122256.640000", "122256.640000", "122256.640000", "122256.656000", "122256.656000", "122256.656000", "122256.656000", "122256.656000", "122256.656000", "122256.656000", "122256.656000", "122256.671000", "122333.031000", "122333.046000", "122333.046000", "122333.046000", "122333.046000", "122333.046000", "122333.046000", "122333.046000", "122333.062000", "122333.062000", "122333.062000", "122333.062000", "122333.078000", "122333.078000", "122333.078000", "122333.078000", "122333.078000", "122333.078000", "122333.078000"],
      "InstanceCreationTime": ["121856.625000", "121856.625000", "121856.625000", "121856.625000", "121856.625000", "121856.625000", "121856.625000", "121856.640000", "121856.640000", "121856.640000", "121856.640000", "121856.640000", "121856.640000", "121856.640000", "121856.640000", "121856.656000", "121856.656000", "121856.656000", "121856.656000", "121856.656000", "121856.656000", "121856.656000", "121856.656000", "121856.671000", "121856.671000", "121936.609000", "121936.609000", "121936.609000", "121936.625000", "121936.625000", "121936.625000", "121936.625000", "121936.625000", "121936.625000", "121936.625000", "121936.625000", "121936.640000", "121936.640000", "121936.640000", "121936.640000", "121936.656000", "121936.656000", "121936.656000", "121936.656000", "121936.656000", "122016.609000", "122016.609000", "122016.609000", "122016.625000", "122016.625000", "122016.625000", "122016.625000", "122016.625000", "122016.640000", "122016.640000", "122016.640000", "122016.656000", "122016.656000", "122016.656000", "122016.656000", "122016.656000", "122016.656000", "122016.656000", "122016.656000", "122016.671000", "122056.609000", "122056.609000", "122056.609000", "122056.625000", "122056.625000", "122056.625000", "122056.625000", "122056.625000", "122056.625000", "122056.625000", "122056.625000", "122056.640000", "122056.640000", "122056.640000", "122056.640000", "122056.640000", "122056.640000", "122056.640000", "122056.656000", "122056.656000", "122136.609000", "122136.609000", "122136.625000", "122136.625000", "122136.625000", "122136.625000", "122136.625000", "122136.640000", "122136.640000", "122136.640000", "122136.640000", "122136.640000", "122136.656000", "122136.656000", "122136.656000", "122136.656000", "122136.656000", "122136.656000", "122136.656000", "122136.671000", "122216.609000", "122216.609000", "122216.609000", "122216.625000", "122216.625000", "122216.625000", "122216.625000", "122216.625000", "122216.625000", "122216.625000", "122216.640000", "122216.640000", "122216.640000", "122216.640000", "122216.640000", "122216.640000", "122216.640000", "122216.640000", "122216.656000", "122216.656000", "122256.609000", "122256.609000", "122256.609000", "122256.625000", "122256.625000", "122256.625000", "122256.625000", "122256.640000", "122256.640000", "122256.640000", "122256.640000", "122256.656000", "122256.656000", "122256.656000", "122256.656000", "122256.656000", "122256.656000", "122256.656000", "122256.656000", "122256.671000", "122333.031000", "122333.046000", "122333.046000", "122333.046000", "122333.046000", "122333.046000", "122333.046000", "122333.046000", "122333.062000", "122333.062000", "122333.062000", "122333.062000", "122333.078000", "122333.078000", "122333.078000", "122333.078000", "122333.078000", "122333.078000", "122333.078000"],
      "InstanceNumber": [1, 2, 3, 4, 5, 6, 7, 8, 9, 10, 11, 12, 13, 14, 15, 16, 17, 18, 19, 20, 21, 22, 23, 24, 25, 26, 27, 28, 29, 30, 31, 32, 33, 34, 35, 36, 37, 38, 39, 40, 41, 42, 43, 44, 45, 46, 47, 48, 49, 50, 51, 52, 53, 54, 55, 56, 57, 58, 59, 60, 61, 62, 63, 64, 65, 66, 67, 68, 69, 70, 71, 72, 73, 74, 75, 76, 77, 78, 79, 80, 81, 82, 83, 84, 85, 86, 87, 88, 89, 90, 91, 92, 93, 94, 95, 96, 97, 98, 99, 100, 101, 102, 103, 104, 105, 106, 107, 108, 109, 110, 111, 112, 113, 114, 115, 116, 117, 118, 119, 120, 121, 122, 123, 124, 125, 126, 127, 128, 129, 130, 131, 132, 133, 134, 135, 136, 137, 138, 139, 140, 141, 142, 143, 144, 145, 146, 147, 148, 149, 150, 151, 152, 153, 154, 155, 156, 157, 158, 159, 160, 161, 162, 163, 164],
      "LargestImagePixelValue": [1935, 1867, 1866, 1853, 1847, 1876, 1832, 1843, 1848, 1852, 1855, 1855, 1840, 1845, 1861, 1827, 1858, 1853, 1847, 1854, 1886, 1875, 1866, 1862, 1851, 1862, 1872, 1887, 1862, 1855, 1847, 1848, 1859, 1864, 1855, 1833, 1860, 1869, 1861, 1878, 1853, 1838, 1847, 1857, 1836, 1855, 1860, 1831, 1844, 1853, 1816, 1842, 1843, 1820, 1810, 1845, 1837, 1806, 1834, 1840, 1827, 1810, 1832, 1815, 1851, 1827, 1810, 1851, 1850, 1848, 1852, 1841, 1845, 1855, 1851, 1855, 1855, 1842, 1860, 1876, 1888, 1854, 1861, 1841, 1873, 1848, 1866, 1888, 1858, 1858, 1846, 1876, 1880, 1858, 1867, 1863, 1855, 1876, 1863, 1853, 1872, 1879, 1879, 1877, 1876, 1855, 1873, 1864, 1864, 1881, 1890, 1870, 1861, 1872, 1889, 1902, 1899, 1890, 1896, 1878, 1887, 1897, 1901, 1898, 1858, 1877, 1884, 1893, 1881, 1888, 1885, 1887, 1880, 1879, 1861, 1888, 1865, 1900, 1893, 1867, 1898, 1887, 1888, 1868, 1882, 1908, 1874, 1885, 1888, 1864, 1880, 1881, 1878, 1884, 1905, 1876, 1873, 1886, 1879, 1866, 1889, 1879, 1898, 1897],
      "WindowCenter": [727.0, 726.0, 725.0, 725.0, 725.0, 724.0, 724.0, 725.0, 725.0, 724.0, 723.0, 723.0, 723.0, 723.0, 723.0, 723.0, 723.0, 723.0, 723.0, 724.0, 724.0, 723.0, 722.0, 723.0, 725.0, 725.0, 725.0, 724.0, 724.0, 724.0, 724.0, 724.0, 724.0, 724.0, 725.0, 725.0, 725.0, 726.0, 725.0, 724.0, 724.0, 723.0, 723.0, 723.0, 724.0, 724.0, 724.0, 723.0, 724.0, 724.0, 724.0, 725.0, 724.0, 724.0, 725.0, 725.0, 725.0, 724.0, 724.0, 725.0, 724.0, 724.0, 724.0, 723.0, 724.0, 724.0, 724.0, 725.0, 724.0, 724.0, 725.0, 725.0, 725.0, 725.0, 723.0, 724.0, 725.0, 725.0, 725.0, 726.0, 725.0, 725.0, 724.0, 724.0, 725.0, 725.0, 725.0, 725.0, 724.0, 724.0, 724.0, 725.0, 725.0, 725.0, 726.0, 726.0, 726.0, 725.0, 725.0, 725.0, 726.0, 726.0, 725.0, 724.0, 724.0, 725.0, 724.0, 724.0, 724.0, 725.0, 725.0, 725.0, 725.0, 726.0, 727.0, 727.0, 726.0, 725.0, 726.0, 726.0, 726.0, 726.0, 725.0, 725.0, 724.0, 725.0, 726.0, 727.0, 726.0, 726.0, 725.0, 726.0, 726.0, 726.0, 727.0, 727.0, 726.0, 726.0, 726.0, 726.0, 727.0, 727.0, 726.0, 725.0, 726.0, 726.0, 726.0, 726.0, 726.0, 726.0, 726.0, 726.0, 726.0, 726.0, 726.0, 726.0, 726.0, 726.0, 726.0, 725.0, 725.0, 726.0, 726.0, 726.0],
      "WindowWidth": [1585.0, 1579.0, 1578.0, 1576.0, 1576.0, 1575.0, 1575.0, 1577.0, 1576.0, 1575.0, 1573.0, 1572.0, 1572.0, 1570.0, 1571.0, 1571.0, 1573.0, 1572.0, 1572.0, 1573.0, 1573.0, 1570.0, 1570.0, 1573.0, 1577.0, 1577.0, 1576.0, 1575.0, 1576.0, 1573.0, 1574.0, 1574.0, 1574.0, 1575.0, 1576.0, 1577.0, 1579.0, 1579.0, 1578.0, 1576.0, 1574.0, 1573.0, 1572.0, 1573.0, 1574.0, 1574.0, 1574.0, 1573.0, 1574.0, 1574.0, 1575.0, 1576.0, 1575.0, 1575.0, 1577.0, 1577.0, 1576.0, 1574.0, 1575.0, 1576.0, 1574.0, 1575.0, 1573.0, 1571.0, 1574.0, 1573.0, 1574.0, 1577.0, 1575.0, 1574.0, 1577.0, 1578.0, 1576.0, 1577.0, 1573.0, 1574.0, 1577.0, 1577.0, 1578.0, 1579.0, 1578.0, 1576.0, 1576.0, 1576.0, 1578.0, 1578.0, 1577.0, 1577.0, 1576.0, 1574.0, 1574.0, 1577.0, 1576.0, 1577.0, 1579.0, 1579.0, 1579.0, 1578.0, 1577.0, 1578.0, 1579.0, 1579.0, 1577.0, 1574.0, 1575.0, 1576.0, 1576.0, 1574.0, 1575.0, 1576.0, 1578.0, 1577.0, 1578.0, 1581.0, 1583.0, 1582.0, 1581.0, 1578.0, 1580.0, 1580.0, 1581.0, 1579.0, 1577.0, 1576.0, 1576.0, 1576.0, 1579.0, 1583.0, 1581.0, 1578.0, 1577.0, 1580.0, 1579.0, 1580.0, 1582.0, 1582.0, 1580.0, 1581.0, 1579.0, 1580.0, 1582.0, 1582.0, 1580.0, 1578.0, 1580.0, 1580.0, 1579.0, 1580.0, 1580.0, 1579.0, 1580.0, 1581.0, 1579.0, 1579.0, 1581.0, 1579.0, 1579.0, 1580.0, 1579.0, 1577.0, 1578.0, 1579.0, 1579.0, 1580.0]
    },
    "slices": {}
  }
}