{
  "AcquisitionMatrixPE": 64,
  "AcquisitionNumber": 1,
  "AcquisitionTime": "09:53:44.482500",
  "BandwidthPerPixelPhaseEncode": 33.967,
  "BaseResolution": 64,
  "CoilCombinationMethod": "Sum of Squares",
  "CoilString": "C:HEA;HEP",
  "ConversionSoftware": "dcm2niix",
  "ConversionSoftwareVersion": "v1.0.20220720",
  "DerivedVendorReportedEchoSpacing": 0.000460005,
  "DeviceSerialNumber": "35193",
  "DwellTime": 3.1e-06,
  "EchoTime": 0.03,
  "EffectiveEchoSpacing": 0.000460005,
  "FlipAngle": 90,
  "HeudiconvVersion": "1.1.6",
  "ImageOrientationPatientDICOM": [0.999962, 0, -0.00872654, 0, 1, 0],
  "ImageOrientationText": "Tra>Sag(-0.5)",
  "ImageType": [
    "ORIGINAL",
    "PRIMARY",
    "M",
    "ND",
    "MOSAIC"
],
  "ImagingFrequency": 123.254,
  "InPlanePhaseEncodingDirectionDICOM": "COL",
  "InstitutionAddress": "Xinjiekouwai Street No 19,Beijing,Haidian District,CN,100875",
  "InstitutionName": "BNU MRI Center",
  "InstitutionalDepartmentName": "Department",
  "MRAcquisitionType": "2D",
  "MagneticFieldStrength": 3,
  "Manufacturer": "Siemens",
  "ManufacturersModelName": "TrioTim",
  "MatrixCoilMode": "SENSE",
  "Modality": "MR",
  "NonlinearGradientCorrection": false,
  "PartialFourier": 1,
  "PatientPosition": "HFS",
  "PercentPhaseFOV": 100,
  "PercentSampling": 100,
  "PhaseEncodingDirection": "j-",
  "PhaseEncodingSteps": 64,
  "PhaseResolution": 1,
  "PixelBandwidth": 2520,
  "ProcedureStepDescription": "BNU_cst_2015^Guo.TaoMei",
  "ProtocolName": "ge_func_3x3x4_164",
  "PulseSequenceDetails": "%SiemensSeq%\\ep2d_bold",
  "ReceiveCoilName": "HeadMatrix",
  "ReconMatrixPE": 64,
  "RepetitionTime": 2,
  "SAR": 0.154559,
  "ScanOptions": "FS",
  "ScanningSequence": "EP",
  "SequenceName": "*epfid2d1_64",
  "SequenceVariant": "SK",
  "SeriesDescription": "ge_func_3x3x4_164",
  "SeriesNumber": 2,
  "ShimSetting": [-4527, -19481, -9822, 1100, 9, -617, 242, 65],
  "SliceThickness": 4,
  "SliceTiming": [0, 1.035, 0.0625, 1.095, 0.1225, 1.1575, 0.1825, 1.2175, 0.245, 1.2775, 0.305, 1.34, 0.365, 1.4, 0.4275, 1.46, 0.4875, 1.5225, 0.5475, 1.5825, 0.61, 1.6425, 0.67, 1.705, 0.73, 1.765, 0.7925, 1.825, 0.8525, 1.8875, 0.9125, 1.9475, 0.975],
  "SoftwareVersions": "syngo MR B17",
  "SpacingBetweenSlices": 4.6,
  "StationName": "MRC35193",
  "TaskName": "LanguageControl",
  "TotalReadoutTime": 0.0289803,
  "TxRefAmp": 321.619,
  "dcmmeta_affine": [
    [-3.1248810291290283, 0.0, -0.04014206305146217, 101.31316375732422],
    [0.0, 3.125, 0.0, -93.50150299072266],
    [-0.027270423248410225, 0.0, 4.599824905395508, -49.784786224365234],
    [0.0, 0.0, 0.0, 1.0]
],
  "dcmmeta_reorient_transform": [
    [0.0, -1.0, 0.0, 63.0],
    [1.0, 0.0, 0.0, 0.0],
    [0.0, 0.0, 1.0, 0.0],
    [0.0, 0.0, 0.0, 1.0]
],
  "dcmmeta_shape": [64, 64, 33, 164],
  "dcmmeta_slice_dim": 2,
  "dcmmeta_version": 0.6,
  "global": {
    "const": {
      "AcquisitionMatrix": [64, 0, 0, 64],
      "AngioFlag": "N",
      "BitsAllocated": 16,
      "BitsStored": 12,
      "Columns": 384,
      "EchoNumbers": 1,
      "EchoTime": 30.0,
      "EchoTrainLength": 1,
      "FlipAngle": 90.0,
      "HighBit": 11,
      "ImageOrientationPatient": [0.99996192306517, 0.0, -0.0087265353836, 0.0, 1.0, 0.0],
      "ImagePositionPatient": [-601.29412561797, -603.37349390984, -45.421518955366],
      "ImageType": [
        "ORIGINAL",
        "PRIMARY",
        "M",
        "ND",
        "MOSAIC"
],
      "ImagedNucleus": "1H",
      "ImagingFrequency": 123.253847,
      "InPlanePhaseEncodingDirection": "COL",
      "MRAcquisitionType": "2D",
      "MagneticFieldStrength": 3.0,
      "Manufacturer": "SIEMENS",
      "ManufacturerModelName": "TrioTim",
      "Modality": "MR",
      "NumberOfAverages": 1.0,
      "NumberOfPhaseEncodingSteps": 64,
      "PercentPhaseFieldOfView": 100.0,
      "PercentSampling": 100.0,
      "PerformedProcedureStepStartTime": "095132.109000",
      "PhotometricInterpretation": "MONOCHROME2",
      "PixelBandwidth": 2520.0,
      "PixelRepresentation": 0,
      "PixelSpacing": [3.125, 3.125],
      "ProtocolName": "ge_func_3x3x4_164",
      "RepetitionTime": 2000.0,
      "Rows": 384,
      "SAR": 0.15455949134088,
      "SamplesPerPixel": 1,
      "ScanOptions": "FS",
      "ScanningSequence": "EP",
      "SequenceName": "*epfid2d1_64",
      "SequenceVariant": "SK",
      "SeriesDescription": "ge_func_3x3x4_164",
      "SeriesNumber": 2,
      "SeriesTime": "095440.015000",
      "SliceLocation": -50.667003906326,
      "SliceThickness": 4.0,
      "SmallestImagePixelValue": 0,
      "SoftwareVersions": "syngo MR B17",
      "SpacingBetweenSlices": 4.6000000592899,
      "SpecificCharacterSet": "ISO_IR 100",
      "StudyID": "1",
      "StudyTime": "095129.984000",
      "TransmitCoilName": "Body",
      "VariableFlipAngleFlag": "N",
      "WindowCenterWidthExplanation": "Algo1",
      "dBdt": 0.0},
    "slices": {}
  },
  "time": {
    "samples": {
      "AcquisitionNumber": [1, 2, 3, 4, 5, 6, 7, 8, 9, 10, 11, 12, 13, 14, 15, 16, 17, 18, 19, 20, 21, 22, 23, 24, 25, 26, 27, 28, 29, 30, 31, 32, 33, 34, 35, 36, 37, 38, 39, 40, 41, 42, 43, 44, 45, 46, 47, 48, 49, 50, 51, 52, 53, 54, 55, 56, 57, 58, 59, 60, 61, 62, 63, 64, 65, 66, 67, 68, 69, 70, 71, 72, 73, 74, 75, 76, 77, 78, 79, 80, 81, 82, 83, 84, 85, 86, 87, 88, 89, 90, 91, 92, 93, 94, 95, 96, 97, 98, 99, 100, 101, 102, 103, 104, 105, 106, 107, 108, 109, 110, 111, 112, 113, 114, 115, 116, 117, 118, 119, 120, 121, 122, 123, 124, 125, 126, 127, 128, 129, 130, 131, 132, 133, 134, 135, 136, 137, 138, 139, 140, 141, 142, 143, 144, 145, 146, 147, 148, 149, 150, 151, 152, 153, 154, 155, 156, 157, 158, 159, 160, 161, 162, 163, 164],
      "AcquisitionTime": ["095344.482500", "095346.492500", "095348.500000", "095350.507500", "095352.515000", "095354.522500", "095356.532500", "095358.540000", "095400.547500", "095402.555000", "095404.562500", "095406.572500", "095408.580000", "095410.587500", "095412.595000", "095414.602500", "095416.612500", "095418.620000", "095420.627500", "095422.635000", "095424.645000", "095426.652500", "095428.660000", "095430.667500", "095432.675000", "095434.685000", "095436.692500", "095438.700000", "095440.707500", "095442.715000", "095444.725000", "095446.732500", "095448.740000", "095450.747500", "095452.757500", "095454.765000", "095456.772500", "095458.780000", "095500.787500", "095502.797500", "095504.805000", "095506.812500", "095508.820000", "095510.827500", "095512.837500", "095514.845000", "095516.852500", "095518.860000", "095520.870000", "095522.877500", "095524.885000", "095526.892500", "095528.900000", "095530.910000", "095532.917500", "095534.925000", "095536.932500", "095538.940000", "095540.950000", "095542.957500", "095544.965000", "095546.972500", "095548.980000", "095550.990000", "095552.997500", "095555.005000", "095557.012500", "095559.022500", "095601.030000", "095603.037500", "095605.045000", "095607.052500", "095609.062500", "095611.070000", "095613.077500", "095615.085000", "095617.092500", "095619.102500", "095621.110000", "095623.117500", "095625.125000", "095627.135000", "095629.142500", "095631.150000", "095633.157500", "095635.165000", "095637.175000", "095639.182500", "095641.190000", "095643.197500", "095645.205000", "095647.215000", "095649.222500", "095651.230000", "095653.237500", "095655.247500", "095657.255000", "095659.262500", "095701.270000", "095703.277500", "095705.287500", "095707.295000", "095709.302500", "095711.310000", "095713.317500", "095715.327500", "095717.335000", "095719.342500", "095721.350000", "095723.357500", "095725.367500", "095727.375000", "095729.382500", "095731.390000", "095733.400000", "095735.407500", "095737.415000", "095739.422500", "095741.430000", "095743.440000", "095745.447500", "095747.455000", "095749.462500", "095751.470000", "095753.480000", "095755.487500", "095757.495000", "095759.502500", "095801.512500", "095803.520000", "095805.527500", "095807.535000", "095809.542500", "095811.552500", "095813.560000", "095815.567500", "095817.575000", "095819.582500", "095821.592500", "095823.600000", "095825.607500", "095827.615000", "095829.625000", "095831.632500", "095833.640000", "095835.647500", "095837.655000", "095839.665000", "095841.672500", "095843.680000", "095845.687500", "095847.695000", "095849.705000", "095851.712500", "095853.720000", "095855.727500", "095857.735000", "095859.745000", "095901.752500", "095903.760000", "095905.767500", "095907.777500", "095909.785000", "095911.792500"],
      "ContentTime": ["095440.015000", "095440.031000", "095440.031000", "095440.031000", "095440.031000", "095440.031000", "095440.031000", "095440.031000", "095440.031000", "095440.046000", "095440.046000", "095440.046000", "095440.046000", "095440.046000", "095440.062000", "095440.062000", "095440.062000", "095440.062000", "095440.062000", "095440.078000", "095440.078000", "095440.078000", "095440.078000", "095440.078000", "095440.078000", "095440.078000", "095440.078000", "095520.015000", "095520.015000", "095520.031000", "095520.031000", "095520.031000", "095520.031000", "095520.031000", "095520.031000", "095520.046000", "095520.046000", "095520.046000", "095520.046000", "095520.046000", "095520.046000", "095520.046000", "095520.046000", "095520.062000", "095520.062000", "095520.062000", "095520.062000", "095600.015000", "095600.015000", "095600.015000", "095600.015000", "095600.031000", "095600.031000", "095600.031000", "095600.031000", "095600.031000", "095600.046000", "095600.046000", "095600.046000", "095600.062000", "095600.062000", "095600.062000", "095600.062000", "095600.062000", "095600.062000", "095600.062000", "095600.062000", "095640.015000", "095640.031000", "095640.031000", "095640.031000", "095640.031000", "095640.031000", "095640.046000", "095640.046000", "095640.046000", "095640.046000", "095640.046000", "095640.046000", "095640.046000", "095640.046000", "095640.062000", "095640.062000", "095640.062000", "095640.062000", "095640.062000", "095640.062000", "095720.015000", "095720.015000", "095720.015000", "095720.015000", "095720.031000", "095720.031000", "095720.031000", "095720.031000", "095720.031000", "095720.031000", "095720.046000", "095720.046000", "095720.046000", "095720.046000", "095720.046000", "095720.046000", "095720.046000", "095720.046000", "095720.062000", "095720.062000", "095800.015000", "095800.015000", "095800.031000", "095800.031000", "095800.031000", "095800.031000", "095800.031000", "095800.031000", "095800.031000", "095800.031000", "095800.046000", "095800.046000", "095800.046000", "095800.046000", "095800.046000", "095800.046000", "095800.046000", "095800.046000", "095800.046000", "095800.062000", "095840.015000", "095840.015000", "095840.015000", "095840.015000", "095840.031000", "095840.031000", "095840.031000", "095840.031000", "095840.046000", "095840.046000", "095840.046000", "095840.046000", "095840.046000", "095840.062000", "095840.062000", "095840.062000", "095840.062000", "095840.062000", "095840.062000", "095840.062000", "095912.781000", "095912.796000", "095912.796000", "095912.796000", "095912.796000", "095912.796000", "095912.812000", "095912.812000", "095912.812000", "095912.812000", "095912.812000", "095912.812000", "095912.812000", "095912.812000", "095912.828000", "095912.828000", "095912.828000"],
      "InstanceCreationTime": ["095440.015000", "095440.031000", "095440.031000", "095440.031000", "095440.031000", "095440.031000", "095440.031000", "095440.031000", "095440.031000", "095440.046000", "095440.046000", "095440.046000", "095440.046000", "095440.046000", "095440.062000", "095440.062000", "095440.062000", "095440.062000", "095440.062000", "095440.078000", "095440.078000", "095440.078000", "095440.078000", "095440.078000", "095440.078000", "095440.078000", "095440.078000", "095520.015000", "095520.015000", "095520.031000", "095520.031000", "095520.031000", "095520.031000", "095520.031000", "095520.031000", "095520.046000", "095520.046000", "095520.046000", "095520.046000", "095520.046000", "095520.046000", "095520.046000", "095520.046000", "095520.062000", "095520.062000", "095520.062000", "095520.062000", "095600.015000", "095600.015000", "095600.015000", "095600.015000", "095600.031000", "095600.031000", "095600.031000", "095600.031000", "095600.031000", "095600.046000", "095600.046000", "095600.046000", "095600.062000", "095600.062000", "095600.062000", "095600.062000", "095600.062000", "095600.062000", "095600.062000", "095600.062000", "095640.015000", "095640.031000", "095640.031000", "095640.031000", "095640.031000", "095640.031000", "095640.046000", "095640.046000", "095640.046000", "095640.046000", "095640.046000", "095640.046000", "095640.046000", "095640.046000", "095640.062000", "095640.062000", "095640.062000", "095640.062000", "095640.062000", "095640.062000", "095720.015000", "095720.015000", "095720.015000", "095720.015000", "095720.031000", "095720.031000", "095720.031000", "095720.031000", "095720.031000", "095720.031000", "095720.046000", "095720.046000", "095720.046000", "095720.046000", "095720.046000", "095720.046000", "095720.046000", "095720.046000", "095720.062000", "095720.062000", "095800.015000", "095800.015000", "095800.031000", "095800.031000", "095800.031000", "095800.031000", "095800.031000", "095800.031000", "095800.031000", "095800.031000", "095800.046000", "095800.046000", "095800.046000", "095800.046000", "095800.046000", "095800.046000", "095800.046000", "095800.046000", "095800.046000", "095800.062000", "095840.015000", "095840.015000", "095840.015000", "095840.015000", "095840.031000", "095840.031000", "095840.031000", "095840.031000", "095840.046000", "095840.046000", "095840.046000", "095840.046000", "095840.046000", "095840.062000", "095840.062000", "095840.062000", "095840.062000", "095840.062000", "095840.062000", "095840.062000", "095912.781000", "095912.796000", "095912.796000", "095912.796000", "095912.796000", "095912.796000", "095912.812000", "095912.812000", "095912.812000", "095912.812000", "095912.812000", "095912.812000", "095912.812000", "095912.812000", "095912.828000", "095912.828000", "095912.828000"],
      "InstanceNumber": [1, 2, 3, 4, 5, 6, 7, 8, 9, 10, 11, 12, 13, 14, 15, 16, 17, 18, 19, 20, 21, 22, 23, 24, 25, 26, 27, 28, 29, 30, 31, 32, 33, 34, 35, 36, 37, 38, 39, 40, 41, 42, 43, 44, 45, 46, 47, 48, 49, 50, 51, 52, 53, 54, 55, 56, 57, 58, 59, 60, 61, 62, 63, 64, 65, 66, 67, 68, 69, 70, 71, 72, 73, 74, 75, 76, 77, 78, 79, 80, 81, 82, 83, 84, 85, 86, 87, 88, 89, 90, 91, 92, 93, 94, 95, 96, 97, 98, 99, 100, 101, 102, 103, 104, 105, 106, 107, 108, 109, 110, 111, 112, 113, 114, 115, 116, 117, 118, 119, 120, 121, 122, 123, 124, 125, 126, 127, 128, 129, 130, 131, 132, 133, 134, 135, 136, 137, 138, 139, 140, 141, 142, 143, 144, 145, 146, 147, 148, 149, 150, 151, 152, 153, 154, 155, 156, 157, 158, 159, 160, 161, 162, 163, 164],
      "LargestImagePixelValue": [1999, 1960, 1931, 1962, 1941, 1940, 1950, 1913, 1952, 1946, 1946, 1953, 1920, 1934, 1918, 1904, 1856, 1916, 1952, 1938, 1885, 1870, 1873, 1882, 1874, 1911, 1891, 1892, 1880, 1875, 1869, 1921, 1957, 1953, 1943, 1927, 1954, 1891, 1925, 1915, 1916, 1986, 1949, 1942, 1966, 1947, 1965, 1926, 1939, 1947, 1974, 1928, 1924, 1956, 1956, 1909, 1890, 1956, 1938, 1937, 1935, 1945, 1963, 1975, 1949, 2002, 1957, 1960, 1934, 1931, 1933, 1993, 1963, 1964, 1959, 1954, 1964, 1970, 1992, 1969, 1954, 1976, 1924, 1997, 1985, 2008, 1960, 1965, 1989, 1971, 1988, 1988, 1968, 1965, 1963, 1931, 1975, 1919, 1955, 1957, 1912, 1969, 1965, 1931, 1967, 1932, 1947, 1978, 1991, 1977, 1968, 1997, 1969, 1947, 1989, 1954, 1964, 1959, 1925, 1965, 1943, 1976, 1920, 1921, 1928, 1928, 1878, 1899, 1924, 1940, 1959, 1894, 1921, 1940, 1908, 1912, 1898, 1931, 1923, 1884, 1917, 1888, 1889, 1904, 1887, 1914, 1929, 1868, 1886, 1881, 1883, 1907, 1880, 1881, 1873, 1916, 1891, 1896, 1884, 1874, 1867, 1887, 1882, 1883],
      "WindowCenter": [719.0, 717.0, 717.0, 716.0, 716.0, 715.0, 715.0, 716.0, 717.0, 717.0, 716.0, 716.0, 715.0, 717.0, 717.0, 717.0, 717.0, 715.0, 715.0, 715.0, 716.0, 718.0, 718.0, 717.0, 716.0, 716.0, 716.0, 715.0, 716.0, 716.0, 715.0, 715.0, 714.0, 713.0, 714.0, 715.0, 717.0, 717.0, 716.0, 715.0, 715.0, 715.0, 715.0, 715.0, 715.0, 715.0, 715.0, 715.0, 714.0, 716.0, 717.0, 715.0, 714.0, 714.0, 716.0, 717.0, 716.0, 715.0, 715.0, 715.0, 716.0, 716.0, 716.0, 715.0, 714.0, 715.0, 715.0, 716.0, 716.0, 716.0, 717.0, 717.0, 716.0, 714.0, 714.0, 716.0, 716.0, 716.0, 716.0, 717.0, 717.0, 717.0, 715.0, 716.0, 715.0, 715.0, 716.0, 717.0, 716.0, 715.0, 714.0, 715.0, 715.0, 715.0, 714.0, 714.0, 716.0, 717.0, 715.0, 714.0, 714.0, 715.0, 716.0, 716.0, 717.0, 717.0, 715.0, 715.0, 715.0, 716.0, 716.0, 716.0, 715.0, 714.0, 716.0, 716.0, 715.0, 716.0, 716.0, 715.0, 715.0, 715.0, 714.0, 715.0, 715.0, 716.0, 715.0, 717.0, 716.0, 715.0, 715.0, 715.0, 715.0, 716.0, 717.0, 716.0, 715.0, 714.0, 715.0, 716.0, 716.0, 716.0, 716.0, 716.0, 716.0, 715.0, 715.0, 714.0, 715.0, 716.0, 717.0, 716.0, 716.0, 717.0, 717.0, 716.0, 716.0, 716.0, 716.0, 715.0, 715.0, 715.0, 716.0, 715.0],
      "WindowWidth": [1572.0, 1567.0, 1567.0, 1564.0, 1563.0, 1559.0, 1560.0, 1562.0, 1566.0, 1566.0, 1564.0, 1562.0, 1561.0, 1566.0, 1567.0, 1566.0, 1564.0, 1560.0, 1560.0, 1561.0, 1563.0, 1569.0, 1569.0, 1565.0, 1562.0, 1563.0, 1563.0, 1560.0, 1563.0, 1564.0, 1562.0, 1560.0, 1558.0, 1555.0, 1556.0, 1561.0, 1567.0, 1565.0, 1563.0, 1560.0, 1559.0, 1560.0, 1560.0, 1559.0, 1560.0, 1560.0, 1561.0, 1561.0, 1559.0, 1564.0, 1566.0, 1560.0, 1556.0, 1558.0, 1564.0, 1566.0, 1561.0, 1558.0, 1559.0, 1562.0, 1562.0, 1562.0, 1563.0, 1561.0, 1558.0, 1559.0, 1560.0, 1562.0, 1564.0, 1564.0, 1565.0, 1565.0, 1562.0, 1557.0, 1557.0, 1562.0, 1563.0, 1562.0, 1563.0, 1566.0, 1568.0, 1565.0, 1559.0, 1562.0, 1561.0, 1560.0, 1563.0, 1565.0, 1562.0, 1559.0, 1557.0, 1559.0, 1560.0, 1559.0, 1558.0, 1559.0, 1562.0, 1565.0, 1561.0, 1556.0, 1557.0, 1561.0, 1562.0, 1564.0, 1567.0, 1565.0, 1561.0, 1559.0, 1561.0, 1563.0, 1564.0, 1563.0, 1559.0, 1557.0, 1562.0, 1563.0, 1561.0, 1562.0, 1564.0, 1561.0, 1559.0, 1559.0, 1558.0, 1561.0, 1561.0, 1561.0, 1562.0, 1565.0, 1563.0, 1560.0, 1559.0, 1559.0, 1560.0, 1563.0, 1566.0, 1564.0, 1559.0, 1556.0, 1560.0, 1563.0, 1562.0, 1563.0, 1563.0, 1564.0, 1563.0, 1560.0, 1559.0, 1557.0, 1560.0, 1564.0, 1565.0, 1563.0, 1564.0, 1566.0, 1564.0, 1563.0, 1563.0, 1563.0, 1562.0, 1561.0, 1560.0, 1561.0, 1562.0, 1559.0]
    },
    "slices": {}
  }
}