{
  "AcquisitionMatrixPE": 64,
  "AcquisitionNumber": 1,
  "AcquisitionTime": "12:26:34.705000",
  "BandwidthPerPixelPhaseEncode": 33.967,
  "BaseResolution": 64,
  "CoilCombinationMethod": "Sum of Squares",
  "CoilString": "C:HEA;HEP",
  "ConversionSoftware": "dcm2niix",
  "ConversionSoftwareVersion": "v1.0.20220720",
  "DerivedVendorReportedEchoSpacing": 0.000460005,
  "DeviceSerialNumber": "35193",
  "DwellTime": 3.1e-06,
  "EchoTime": 0.03,
  "EffectiveEchoSpacing": 0.000460005,
  "FlipAngle": 90,
  "HeudiconvVersion": "1.1.6",
  "ImageOrientationPatientDICOM": [0.999536, 0.00698134, 0.0296655, -0.00697827, 0.999976, -0.00020711],
  "ImageOrientationText": "Tra>Sag(1.7)",
  "ImageType": [
    "ORIGINAL",
    "PRIMARY",
    "M",
    "ND",
    "MOSAIC"
],
  "ImagingFrequency": 123.254,
  "InPlanePhaseEncodingDirectionDICOM": "COL",
  "InstitutionAddress": "Xinjiekouwai Street No 19,Beijing,Haidian District,CN,100875",
  "InstitutionName": "BNU MRI Center",
  "InstitutionalDepartmentName": "Department",
  "MRAcquisitionType": "2D",
  "MagneticFieldStrength": 3,
  "Manufacturer": "Siemens",
  "ManufacturersModelName": "TrioTim",
  "MatrixCoilMode": "SENSE",
  "Modality": "MR",
  "NonlinearGradientCorrection": false,
  "PartialFourier": 1,
  "PatientPosition": "HFS",
  "PercentPhaseFOV": 100,
  "PercentSampling": 100,
  "PhaseEncodingDirection": "j-",
  "PhaseEncodingSteps": 64,
  "PhaseResolution": 1,
  "PixelBandwidth": 2520,
  "ProcedureStepDescription": "BNU_cst_2015^Guo.TaoMei",
  "ProtocolName": "ge_func_3x3x4_164",
  "PulseSequenceDetails": "%SiemensSeq%\\ep2d_bold",
  "ReceiveCoilName": "HeadMatrix",
  "ReconMatrixPE": 64,
  "RepetitionTime": 2,
  "SAR": 0.167203,
  "ScanOptions": "FS",
  "ScanningSequence": "EP",
  "SequenceName": "*epfid2d1_64",
  "SequenceVariant": "SK",
  "SeriesDescription": "ge_func_3x3x4_164",
  "SeriesNumber": 3,
  "ShimSetting": [-4511, -19413, -9867, 941, -78, -242, -27, 23],
  "SliceThickness": 4,
  "SliceTiming": [0, 1.0325, 0.06, 1.095, 0.12, 1.155, 0.1825, 1.215, 0.2425, 1.2775, 0.3025, 1.3375, 0.365, 1.3975, 0.425, 1.46, 0.485, 1.52, 0.5475, 1.58, 0.6075, 1.6425, 0.6675, 1.7025, 0.73, 1.7625, 0.79, 1.825, 0.85, 1.885, 0.9125, 1.945, 0.9725],
  "SoftwareVersions": "syngo MR B17",
  "SpacingBetweenSlices": 4.6,
  "StationName": "MRC35193",
  "TaskName": "CognitiveControl",
  "TotalReadoutTime": 0.0289803,
  "TxRefAmp": 383.459,
  "dcmmeta_affine": [
    [-3.1235485076904297, -0.02180708386003971, 0.13646471500396729, 109.24131774902344],
    [-0.021816685795783997, 3.1249239444732666, 1.9732377953829427e-09, -87.4034194946289],
    [0.09270475059747696, 0.000647217791993171, 4.597975254058838, -77.22891998291016],
    [0.0, 0.0, 0.0, 1.0]
],
  "dcmmeta_reorient_transform": [
    [0.0, -1.0, 0.0, 63.0],
    [1.0, 0.0, 0.0, 0.0],
    [0.0, 0.0, 1.0, 0.0],
    [0.0, 0.0, 0.0, 1.0]
],
  "dcmmeta_shape": [64, 64, 33, 164],
  "dcmmeta_slice_dim": 2,
  "dcmmeta_version": 0.6,
  "global": {
    "const": {
      "AcquisitionMatrix": [64, 0, 0, 64],
      "AngioFlag": "N",
      "BitsAllocated": 16,
      "BitsStored": 12,
      "Columns": 384,
      "EchoNumbers": 1,
      "EchoTime": 30.0,
      "EchoTrainLength": 1,
      "FlipAngle": 90.0,
      "HighBit": 11,
      "ImageOrientationPatient": [0.99953550100336, 0.00698133962156, 0.02966552091317, -0.0069782668683, 0.9999756301516, -0.000207109695],
      "ImagePositionPatient": [-604.14608536169, -612.94526664936, -91.917348671841],
      "ImageType": [
        "ORIGINAL",
        "PRIMARY",
        "M",
        "ND",
        "MOSAIC"
],
      "ImagedNucleus": "1H",
      "ImagingFrequency": 123.253706,
      "InPlanePhaseEncodingDirection": "COL",
      "MRAcquisitionType": "2D",
      "MagneticFieldStrength": 3.0,
      "Manufacturer": "SIEMENS",
      "ManufacturerModelName": "TrioTim",
      "Modality": "MR",
      "NumberOfAverages": 1.0,
      "NumberOfPhaseEncodingSteps": 64,
      "PercentPhaseFieldOfView": 100.0,
      "PercentSampling": 100.0,
      "PerformedProcedureStepStartTime": "121202.500000",
      "PhotometricInterpretation": "MONOCHROME2",
      "PixelBandwidth": 2520.0,
      "PixelRepresentation": 0,
      "PixelSpacing": [3.125, 3.125],
      "ProtocolName": "ge_func_3x3x4_164",
      "RepetitionTime": 2000.0,
      "Rows": 384,
      "SAR": 0.16720329948918,
      "SamplesPerPixel": 1,
      "ScanOptions": "FS",
      "ScanningSequence": "EP",
      "SequenceName": "*epfid2d1_64",
      "SequenceVariant": "SK",
      "SeriesDescription": "ge_func_3x3x4_164",
      "SeriesNumber": 3,
      "SeriesTime": "122719.218000",
      "SliceLocation": -73.954146815918,
      "SliceThickness": 4.0,
      "SmallestImagePixelValue": 0,
      "SoftwareVersions": "syngo MR B17",
      "SpacingBetweenSlices": 4.5999998982079,
      "SpecificCharacterSet": "ISO_IR 100",
      "StudyID": "1",
      "StudyTime": "121202.421000",
      "TransmitCoilName": "Body",
      "VariableFlipAngleFlag": "N",
      "WindowCenterWidthExplanation": "Algo1",
      "dBdt": 0.0},
    "slices": {}
  },
  "time": {
    "samples": {
      "AcquisitionNumber": [1, 2, 3, 4, 5, 6, 7, 8, 9, 10, 11, 12, 13, 14, 15, 16, 17, 18, 19, 20, 21, 22, 23, 24, 25, 26, 27, 28, 29, 30, 31, 32, 33, 34, 35, 36, 37, 38, 39, 40, 41, 42, 43, 44, 45, 46, 47, 48, 49, 50, 51, 52, 53, 54, 55, 56, 57, 58, 59, 60, 61, 62, 63, 64, 65, 66, 67, 68, 69, 70, 71, 72, 73, 74, 75, 76, 77, 78, 79, 80, 81, 82, 83, 84, 85, 86, 87, 88, 89, 90, 91, 92, 93, 94, 95, 96, 97, 98, 99, 100, 101, 102, 103, 104, 105, 106, 107, 108, 109, 110, 111, 112, 113, 114, 115, 116, 117, 118, 119, 120, 121, 122, 123, 124, 125, 126, 127, 128, 129, 130, 131, 132, 133, 134, 135, 136, 137, 138, 139, 140, 141, 142, 143, 144, 145, 146, 147, 148, 149, 150, 151, 152, 153, 154, 155, 156, 157, 158, 159, 160, 161, 162, 163, 164],
      "AcquisitionTime": ["122634.705000", "122636.712500", "122638.720000", "122640.727500", "122642.737500", "122644.745000", "122646.752500", "122648.760000", "122650.767500", "122652.777500", "122654.785000", "122656.792500", "122658.800000", "122700.807500", "122702.817500", "122704.825000", "122706.832500", "122708.840000", "122710.850000", "122712.857500", "122714.865000", "122716.872500", "122718.880000", "122720.890000", "122722.897500", "122724.905000", "122726.912500", "122728.920000", "122730.930000", "122732.937500", "122734.945000", "122736.952500", "122738.960000", "122740.970000", "122742.977500", "122744.985000", "122746.992500", "122749.002500", "122751.010000", "122753.017500", "122755.025000", "122757.032500", "122759.042500", "122801.050000", "122803.057500", "122805.065000", "122807.072500", "122809.082500", "122811.090000", "122813.097500", "122815.105000", "122817.115000", "122819.122500", "122821.130000", "122823.137500", "122825.145000", "122827.155000", "122829.162500", "122831.170000", "122833.177500", "122835.185000", "122837.195000", "122839.202500", "122841.210000", "122843.217500", "122845.227500", "122847.235000", "122849.242500", "122851.250000", "122853.257500", "122855.267500", "122857.275000", "122859.282500", "122901.290000", "122903.297500", "122905.307500", "122907.315000", "122909.322500", "122911.330000", "122913.337500", "122915.347500", "122917.355000", "122919.362500", "122921.370000", "122923.380000", "122925.387500", "122927.395000", "122929.402500", "122931.410000", "122933.420000", "122935.427500", "122937.435000", "122939.442500", "122941.450000", "122943.460000", "122945.467500", "122947.475000", "122949.482500", "122951.492500", "122953.500000", "122955.507500", "122957.515000", "122959.522500", "123001.532500", "123003.540000", "123005.547500", "123007.555000", "123009.562500", "123011.572500", "123013.580000", "123015.587500", "123017.595000", "123019.605000", "123021.612500", "123023.620000", "123025.627500", "123027.635000", "123029.645000", "123031.652500", "123033.660000", "123035.667500", "123037.675000", "123039.685000", "123041.692500", "123043.700000", "123045.707500", "123047.715000", "123049.725000", "123051.732500", "123053.740000", "123055.747500", "123057.757500", "123059.765000", "123101.772500", "123103.780000", "123105.787500", "123107.797500", "123109.805000", "123111.812500", "123113.820000", "123115.827500", "123117.837500", "123119.845000", "123121.852500", "123123.860000", "123125.870000", "123127.877500", "123129.885000", "123131.892500", "123133.900000", "123135.910000", "123137.917500", "123139.925000", "123141.932500", "123143.940000", "123145.950000", "123147.957500", "123149.965000", "123151.972500", "123153.982500", "123155.990000", "123157.997500", "123200.005000", "123202.012500"],
      "ContentTime": ["122719.218000", "122719.218000", "122719.218000", "122719.218000", "122719.234000", "122719.234000", "122719.234000", "122719.234000", "122719.250000", "122719.250000", "122719.250000", "122719.250000", "122719.250000", "122719.250000", "122719.250000", "122719.265000", "122719.265000", "122719.265000", "122719.265000", "122719.265000", "122719.265000", "122759.218000", "122759.218000", "122759.218000", "122759.218000", "122759.218000", "122759.218000", "122759.218000", "122759.234000", "122759.234000", "122759.234000", "122759.234000", "122759.250000", "122759.250000", "122759.250000", "122759.250000", "122759.250000", "122759.250000", "122759.250000", "122759.250000", "122759.265000", "122839.218000", "122839.218000", "122839.218000", "122839.218000", "122839.218000", "122839.218000", "122839.218000", "122839.234000", "122839.234000", "122839.234000", "122839.234000", "122839.234000", "122839.234000", "122839.234000", "122839.234000", "122839.250000", "122839.250000", "122839.250000", "122839.250000", "122839.250000", "122919.218000", "122919.218000", "122919.218000", "122919.218000", "122919.234000", "122919.234000", "122919.234000", "122919.250000", "122919.250000", "122919.250000", "122919.250000", "122919.250000", "122919.265000", "122919.265000", "122919.265000", "122919.265000", "122919.281000", "122919.281000", "122919.281000", "122919.281000", "122959.218000", "122959.218000", "122959.218000", "122959.218000", "122959.218000", "122959.234000", "122959.234000", "122959.234000", "122959.234000", "122959.234000", "122959.250000", "122959.250000", "122959.250000", "122959.250000", "122959.250000", "122959.250000", "122959.250000", "122959.250000", "122959.265000", "122959.265000", "123039.218000", "123039.218000", "123039.218000", "123039.218000", "123039.218000", "123039.218000", "123039.218000", "123039.234000", "123039.234000", "123039.234000", "123039.250000", "123039.250000", "123039.250000", "123039.250000", "123039.250000", "123039.250000", "123039.250000", "123039.250000", "123039.265000", "123039.265000", "123119.218000", "123119.218000", "123119.218000", "123119.234000", "123119.234000", "123119.234000", "123119.234000", "123119.234000", "123119.234000", "123119.250000", "123119.250000", "123119.250000", "123119.250000", "123119.250000", "123119.250000", "123119.250000", "123119.250000", "123119.265000", "123119.265000", "123119.265000", "123159.218000", "123159.218000", "123159.218000", "123159.218000", "123159.218000", "123159.218000", "123159.218000", "123159.234000", "123159.234000", "123159.234000", "123159.234000", "123159.234000", "123159.250000", "123159.250000", "123159.250000", "123159.250000", "123159.250000", "123159.250000", "123159.250000", "123159.265000", "123203.453000", "123203.453000", "123203.453000"],
      "InstanceCreationTime": ["122719.218000", "122719.218000", "122719.218000", "122719.218000", "122719.234000", "122719.234000", "122719.234000", "122719.234000", "122719.250000", "122719.250000", "122719.250000", "122719.250000", "122719.250000", "122719.250000", "122719.250000", "122719.265000", "122719.265000", "122719.265000", "122719.265000", "122719.265000", "122719.265000", "122759.218000", "122759.218000", "122759.218000", "122759.218000", "122759.218000", "122759.218000", "122759.218000", "122759.234000", "122759.234000", "122759.234000", "122759.234000", "122759.250000", "122759.250000", "122759.250000", "122759.250000", "122759.250000", "122759.250000", "122759.250000", "122759.250000", "122759.265000", "122839.218000", "122839.218000", "122839.218000", "122839.218000", "122839.218000", "122839.218000", "122839.218000", "122839.234000", "122839.234000", "122839.234000", "122839.234000", "122839.234000", "122839.234000", "122839.234000", "122839.234000", "122839.250000", "122839.250000", "122839.250000", "122839.250000", "122839.250000", "122919.218000", "122919.218000", "122919.218000", "122919.218000", "122919.234000", "122919.234000", "122919.234000", "122919.250000", "122919.250000", "122919.250000", "122919.250000", "122919.250000", "122919.265000", "122919.265000", "122919.265000", "122919.265000", "122919.281000", "122919.281000", "122919.281000", "122919.281000", "122959.218000", "122959.218000", "122959.218000", "122959.218000", "122959.218000", "122959.234000", "122959.234000", "122959.234000", "122959.234000", "122959.234000", "122959.250000", "122959.250000", "122959.250000", "122959.250000", "122959.250000", "122959.250000", "122959.250000", "122959.250000", "122959.265000", "122959.265000", "123039.218000", "123039.218000", "123039.218000", "123039.218000", "123039.218000", "123039.218000", "123039.218000", "123039.234000", "123039.234000", "123039.234000", "123039.250000", "123039.250000", "123039.250000", "123039.250000", "123039.250000", "123039.250000", "123039.250000", "123039.250000", "123039.265000", "123039.265000", "123119.218000", "123119.218000", "123119.218000", "123119.234000", "123119.234000", "123119.234000", "123119.234000", "123119.234000", "123119.234000", "123119.250000", "123119.250000", "123119.250000", "123119.250000", "123119.250000", "123119.250000", "123119.250000", "123119.250000", "123119.265000", "123119.265000", "123119.265000", "123159.218000", "123159.218000", "123159.218000", "123159.218000", "123159.218000", "123159.218000", "123159.218000", "123159.234000", "123159.234000", "123159.234000", "123159.234000", "123159.234000", "123159.250000", "123159.250000", "123159.250000", "123159.250000", "123159.250000", "123159.250000", "123159.250000", "123159.265000", "123203.453000", "123203.453000", "123203.453000"],
      "InstanceNumber": [1, 2, 3, 4, 5, 6, 7, 8, 9, 10, 11, 12, 13, 14, 15, 16, 17, 18, 19, 20, 21, 22, 23, 24, 25, 26, 27, 28, 29, 30, 31, 32, 33, 34, 35, 36, 37, 38, 39, 40, 41, 42, 43, 44, 45, 46, 47, 48, 49, 50, 51, 52, 53, 54, 55, 56, 57, 58, 59, 60, 61, 62, 63, 64, 65, 66, 67, 68, 69, 70, 71, 72, 73, 74, 75, 76, 77, 78, 79, 80, 81, 82, 83, 84, 85, 86, 87, 88, 89, 90, 91, 92, 93, 94, 95, 96, 97, 98, 99, 100, 101, 102, 103, 104, 105, 106, 107, 108, 109, 110, 111, 112, 113, 114, 115, 116, 117, 118, 119, 120, 121, 122, 123, 124, 125, 126, 127, 128, 129, 130, 131, 132, 133, 134, 135, 136, 137, 138, 139, 140, 141, 142, 143, 144, 145, 146, 147, 148, 149, 150, 151, 152, 153, 154, 155, 156, 157, 158, 159, 160, 161, 162, 163, 164],
      "LargestImagePixelValue": [2098, 2018, 2008, 2008, 2005, 2004, 1982, 1992, 1996, 1999, 2017, 1988, 2001, 2026, 2011, 2020, 2003, 2006, 2007, 2024, 1977, 2028, 2012, 2011, 2036, 1994, 2027, 1997, 1990, 2010, 2032, 2030, 2004, 2031, 2036, 2044, 2023, 2030, 2052, 2050, 2041, 2057, 2054, 2047, 2037, 2032, 2053, 2031, 2061, 2055, 2041, 2060, 2036, 2055, 2041, 2045, 2034, 2052, 2062, 2031, 2036, 2043, 2054, 2031, 2052, 2062, 2066, 2056, 2049, 2050, 2057, 2054, 2041, 2047, 2059, 2069, 2063, 2064, 2055, 2054, 2068, 2080, 2101, 2093, 2061, 2055, 2024, 2009, 2033, 2008, 2020, 2028, 2019, 2029, 2051, 2060, 2051, 2052, 2056, 2059, 2062, 2051, 2048, 2074, 2062, 2047, 2060, 2043, 2053, 2062, 2077, 2080, 2064, 2092, 2092, 2080, 2075, 2056, 2072, 2075, 2079, 2072, 2051, 2060, 2073, 2080, 2065, 2095, 2058, 2061, 2064, 2090, 2076, 2057, 2050, 2054, 2073, 2054, 2197, 2017, 2071, 2065, 2055, 2053, 2054, 2043, 2047, 2065, 2091, 2086, 2092, 2081, 2079, 2068, 2062, 2059, 2080, 2092, 2074, 2090, 2075, 2064, 2089, 2101],
      "WindowCenter": [749.0, 745.0, 744.0, 744.0, 744.0, 745.0, 745.0, 745.0, 745.0, 745.0, 745.0, 745.0, 746.0, 746.0, 746.0, 746.0, 746.0, 746.0, 746.0, 745.0, 746.0, 748.0, 747.0, 746.0, 744.0, 741.0, 739.0, 738.0, 739.0, 740.0, 741.0, 742.0, 744.0, 745.0, 744.0, 745.0, 745.0, 746.0, 746.0, 746.0, 747.0, 747.0, 747.0, 747.0, 747.0, 746.0, 747.0, 747.0, 747.0, 747.0, 747.0, 747.0, 747.0, 747.0, 747.0, 747.0, 747.0, 747.0, 747.0, 747.0, 747.0, 746.0, 746.0, 746.0, 747.0, 747.0, 747.0, 747.0, 746.0, 747.0, 747.0, 746.0, 746.0, 746.0, 746.0, 747.0, 747.0, 747.0, 747.0, 747.0, 747.0, 747.0, 748.0, 749.0, 747.0, 746.0, 743.0, 740.0, 739.0, 738.0, 740.0, 741.0, 742.0, 744.0, 745.0, 746.0, 746.0, 747.0, 746.0, 747.0, 747.0, 747.0, 747.0, 748.0, 748.0, 748.0, 748.0, 747.0, 747.0, 747.0, 748.0, 748.0, 747.0, 748.0, 748.0, 748.0, 747.0, 747.0, 747.0, 747.0, 747.0, 747.0, 747.0, 746.0, 747.0, 747.0, 747.0, 748.0, 748.0, 748.0, 747.0, 747.0, 747.0, 747.0, 748.0, 747.0, 747.0, 748.0, 751.0, 749.0, 748.0, 746.0, 743.0, 740.0, 739.0, 738.0, 739.0, 741.0, 744.0, 745.0, 746.0, 746.0, 746.0, 747.0, 748.0, 748.0, 749.0, 749.0, 749.0, 749.0, 749.0, 749.0, 749.0, 749.0],
      "WindowWidth": [1620.0, 1610.0, 1607.0, 1608.0, 1608.0, 1608.0, 1610.0, 1609.0, 1610.0, 1609.0, 1609.0, 1609.0, 1611.0, 1612.0, 1612.0, 1612.0, 1612.0, 1611.0, 1611.0, 1610.0, 1612.0, 1620.0, 1615.0, 1613.0, 1607.0, 1599.0, 1591.0, 1591.0, 1593.0, 1596.0, 1598.0, 1602.0, 1608.0, 1609.0, 1608.0, 1610.0, 1610.0, 1613.0, 1613.0, 1613.0, 1614.0, 1615.0, 1614.0, 1615.0, 1615.0, 1613.0, 1614.0, 1615.0, 1615.0, 1616.0, 1614.0, 1614.0, 1614.0, 1614.0, 1614.0, 1614.0, 1616.0, 1615.0, 1615.0, 1614.0, 1614.0, 1613.0, 1613.0, 1614.0, 1616.0, 1616.0, 1615.0, 1614.0, 1613.0, 1614.0, 1615.0, 1613.0, 1612.0, 1612.0, 1614.0, 1615.0, 1616.0, 1616.0, 1616.0, 1616.0, 1616.0, 1616.0, 1619.0, 1621.0, 1615.0, 1612.0, 1604.0, 1595.0, 1592.0, 1591.0, 1596.0, 1600.0, 1602.0, 1606.0, 1610.0, 1611.0, 1613.0, 1614.0, 1613.0, 1614.0, 1615.0, 1615.0, 1615.0, 1617.0, 1618.0, 1617.0, 1617.0, 1615.0, 1616.0, 1616.0, 1617.0, 1617.0, 1616.0, 1617.0, 1618.0, 1618.0, 1615.0, 1614.0, 1615.0, 1615.0, 1616.0, 1615.0, 1614.0, 1613.0, 1615.0, 1616.0, 1616.0, 1618.0, 1617.0, 1616.0, 1615.0, 1615.0, 1615.0, 1615.0, 1617.0, 1616.0, 1616.0, 1617.0, 1627.0, 1619.0, 1616.0, 1612.0, 1603.0, 1595.0, 1593.0, 1591.0, 1593.0, 1599.0, 1606.0, 1610.0, 1612.0, 1612.0, 1613.0, 1614.0, 1616.0, 1618.0, 1620.0, 1621.0, 1620.0, 1621.0, 1620.0, 1620.0, 1621.0, 1621.0]
    },
    "slices": {}
  }
}