{
  "AcquisitionMatrixPE": 64,
  "AcquisitionNumber": 1,
  "AcquisitionTime": "12:39:37.645000",
  "BandwidthPerPixelPhaseEncode": 33.967,
  "BaseResolution": 64,
  "CoilCombinationMethod": "Sum of Squares",
  "CoilString": "C:HEA;HEP",
  "ConversionSoftware": "dcm2niix",
  "ConversionSoftwareVersion": "v1.0.20220720",
  "DerivedVendorReportedEchoSpacing": 0.000460005,
  "DeviceSerialNumber": "35193",
  "DwellTime": 3.1e-06,
  "EchoTime": 0.03,
  "EffectiveEchoSpacing": 0.000460005,
  "FlipAngle": 90,
  "HeudiconvVersion": "1.1.6",
  "ImageOrientationPatientDICOM": [0.999536, 0.00698134, 0.0296655, -0.00697827, 0.999976, -0.00020711],
  "ImageOrientationText": "Tra>Sag(1.7)",
  "ImageType": [
    "ORIGINAL",
    "PRIMARY",
    "M",
    "ND",
    "MOSAIC"
],
  "ImagingFrequency": 123.254,
  "InPlanePhaseEncodingDirectionDICOM": "COL",
  "InstitutionAddress": "Xinjiekouwai Street No 19,Beijing,Haidian District,CN,100875",
  "InstitutionName": "BNU MRI Center",
  "InstitutionalDepartmentName": "Department",
  "MRAcquisitionType": "2D",
  "MagneticFieldStrength": 3,
  "Manufacturer": "Siemens",
  "ManufacturersModelName": "TrioTim",
  "MatrixCoilMode": "SENSE",
  "Modality": "MR",
  "NonlinearGradientCorrection": false,
  "PartialFourier": 1,
  "PatientPosition": "HFS",
  "PercentPhaseFOV": 100,
  "PercentSampling": 100,
  "PhaseEncodingDirection": "j-",
  "PhaseEncodingSteps": 64,
  "PhaseResolution": 1,
  "PixelBandwidth": 2520,
  "ProcedureStepDescription": "BNU_cst_2015^Guo.TaoMei",
  "ProtocolName": "ge_func_3x3x4_164",
  "PulseSequenceDetails": "%SiemensSeq%\\ep2d_bold",
  "ReceiveCoilName": "HeadMatrix",
  "ReconMatrixPE": 64,
  "RepetitionTime": 2,
  "SAR": 0.167203,
  "ScanOptions": "FS",
  "ScanningSequence": "EP",
  "SequenceName": "*epfid2d1_64",
  "SequenceVariant": "SK",
  "SeriesDescription": "ge_func_3x3x4_164",
  "SeriesNumber": 5,
  "ShimSetting": [-4511, -19413, -9867, 941, -78, -242, -27, 23],
  "SliceThickness": 4,
  "SliceTiming": [0, 1.035, 0.0625, 1.095, 0.1225, 1.1575, 0.1825, 1.2175, 0.245, 1.2775, 0.305, 1.34, 0.365, 1.4, 0.4275, 1.46, 0.4875, 1.5225, 0.5475, 1.5825, 0.61, 1.6425, 0.67, 1.705, 0.73, 1.765, 0.7925, 1.825, 0.8525, 1.8875, 0.9125, 1.9475, 0.975],
  "SoftwareVersions": "syngo MR B17",
  "SpacingBetweenSlices": 4.6,
  "StationName": "MRC35193",
  "TaskName": "LanguageControl",
  "TotalReadoutTime": 0.0289803,
  "TxRefAmp": 383.459,
  "dcmmeta_affine": [
    [-3.1235485076904297, -0.02180708386003971, 0.13646471500396729, 109.24131774902344],
    [-0.021816685795783997, 3.1249239444732666, 1.9732377953829427e-09, -87.4034194946289],
    [0.09270475059747696, 0.000647217791993171, 4.597975254058838, -77.22891998291016],
    [0.0, 0.0, 0.0, 1.0]
],
  "dcmmeta_reorient_transform": [
    [0.0, -1.0, 0.0, 63.0],
    [1.0, 0.0, 0.0, 0.0],
    [0.0, 0.0, 1.0, 0.0],
    [0.0, 0.0, 0.0, 1.0]
],
  "dcmmeta_shape": [64, 64, 33, 164],
  "dcmmeta_slice_dim": 2,
  "dcmmeta_version": 0.6,
  "global": {
    "const": {
      "AcquisitionMatrix": [64, 0, 0, 64],
      "AngioFlag": "N",
      "BitsAllocated": 16,
      "BitsStored": 12,
      "Columns": 384,
      "EchoNumbers": 1,
      "EchoTime": 30.0,
      "EchoTrainLength": 1,
      "FlipAngle": 90.0,
      "HighBit": 11,
      "ImageOrientationPatient": [0.99953550100336, 0.00698133962156, 0.02966552091317, -0.0069782668683, 0.9999756301516, -0.000207109695],
      "ImagePositionPatient": [-604.14608536169, -612.94526664936, -91.917348671841],
      "ImageType": [
        "ORIGINAL",
        "PRIMARY",
        "M",
        "ND",
        "MOSAIC"
],
      "ImagedNucleus": "1H",
      "ImagingFrequency": 123.25371,
      "InPlanePhaseEncodingDirection": "COL",
      "MRAcquisitionType": "2D",
      "MagneticFieldStrength": 3.0,
      "Manufacturer": "SIEMENS",
      "ManufacturerModelName": "TrioTim",
      "Modality": "MR",
      "NumberOfAverages": 1.0,
      "NumberOfPhaseEncodingSteps": 64,
      "PercentPhaseFieldOfView": 100.0,
      "PercentSampling": 100.0,
      "PerformedProcedureStepStartTime": "121202.500000",
      "PhotometricInterpretation": "MONOCHROME2",
      "PixelBandwidth": 2520.0,
      "PixelRepresentation": 0,
      "PixelSpacing": [3.125, 3.125],
      "ProtocolName": "ge_func_3x3x4_164",
      "RepetitionTime": 2000.0,
      "Rows": 384,
      "SAR": 0.16720329948918,
      "SamplesPerPixel": 1,
      "ScanOptions": "FS",
      "ScanningSequence": "EP",
      "SequenceName": "*epfid2d1_64",
      "SequenceVariant": "SK",
      "SeriesDescription": "ge_func_3x3x4_164",
      "SeriesNumber": 5,
      "SeriesTime": "123943.578000",
      "SliceLocation": -73.954146815918,
      "SliceThickness": 4.0,
      "SmallestImagePixelValue": 0,
      "SoftwareVersions": "syngo MR B17",
      "SpacingBetweenSlices": 4.5999998982079,
      "SpecificCharacterSet": "ISO_IR 100",
      "StudyID": "1",
      "StudyTime": "121202.421000",
      "TransmitCoilName": "Body",
      "VariableFlipAngleFlag": "N",
      "WindowCenterWidthExplanation": "Algo1",
      "dBdt": 0.0},
    "slices": {}
  },
  "time": {
    "samples": {
      "AcquisitionNumber": [1, 2, 3, 4, 5, 6, 7, 8, 9, 10, 11, 12, 13, 14, 15, 16, 17, 18, 19, 20, 21, 22, 23, 24, 25, 26, 27, 28, 29, 30, 31, 32, 33, 34, 35, 36, 37, 38, 39, 40, 41, 42, 43, 44, 45, 46, 47, 48, 49, 50, 51, 52, 53, 54, 55, 56, 57, 58, 59, 60, 61, 62, 63, 64, 65, 66, 67, 68, 69, 70, 71, 72, 73, 74, 75, 76, 77, 78, 79, 80, 81, 82, 83, 84, 85, 86, 87, 88, 89, 90, 91, 92, 93, 94, 95, 96, 97, 98, 99, 100, 101, 102, 103, 104, 105, 106, 107, 108, 109, 110, 111, 112, 113, 114, 115, 116, 117, 118, 119, 120, 121, 122, 123, 124, 125, 126, 127, 128, 129, 130, 131, 132, 133, 134, 135, 136, 137, 138, 139, 140, 141, 142, 143, 144, 145, 146, 147, 148, 149, 150, 151, 152, 153, 154, 155, 156, 157, 158, 159, 160, 161, 162, 163, 164],
      "AcquisitionTime": ["123937.645000", "123939.652500", "123941.662500", "123943.670000", "123945.677500", "123947.685000", "123949.695000", "123951.702500", "123953.710000", "123955.717500", "123957.725000", "123959.735000", "124001.742500", "124003.750000", "124005.757500", "124007.765000", "124009.775000", "124011.782500", "124013.790000", "124015.797500", "124017.807500", "124019.815000", "124021.822500", "124023.830000", "124025.837500", "124027.847500", "124029.855000", "124031.862500", "124033.870000", "124035.877500", "124037.887500", "124039.895000", "124041.902500", "124043.910000", "124045.917500", "124047.927500", "124049.935000", "124051.942500", "124053.950000", "124055.960000", "124057.967500", "124059.975000", "124101.982500", "124103.990000", "124106.000000", "124108.007500", "124110.015000", "124112.022500", "124114.030000", "124116.040000", "124118.047500", "124120.055000", "124122.062500", "124124.072500", "124126.080000", "124128.087500", "124130.095000", "124132.102500", "124134.112500", "124136.120000", "124138.127500", "124140.135000", "124142.142500", "124144.152500", "124146.160000", "124148.167500", "124150.175000", "124152.185000", "124154.192500", "124156.200000", "124158.207500", "124200.215000", "124202.225000", "124204.232500", "124206.240000", "124208.247500", "124210.255000", "124212.265000", "124214.272500", "124216.280000", "124218.287500", "124220.297500", "124222.305000", "124224.312500", "124226.320000", "124228.327500", "124230.337500", "124232.345000", "124234.352500", "124236.360000", "124238.367500", "124240.377500", "124242.385000", "124244.392500", "124246.400000", "124248.407500", "124250.417500", "124252.425000", "124254.432500", "124256.440000", "124258.450000", "124300.457500", "124302.465000", "124304.472500", "124306.480000", "124308.490000", "124310.497500", "124312.505000", "124314.512500", "124316.520000", "124318.530000", "124320.537500", "124322.545000", "124324.552500", "124326.562500", "124328.570000", "124330.577500", "124332.585000", "124334.592500", "124336.602500", "124338.610000", "124340.617500", "124342.625000", "124344.632500", "124346.642500", "124348.650000", "124350.657500", "124352.665000", "124354.675000", "124356.682500", "124358.690000", "124400.697500", "124402.705000", "124404.715000", "124406.722500", "124408.730000", "124410.737500", "124412.745000", "124414.755000", "124416.762500", "124418.770000", "124420.777500", "124422.785000", "124424.795000", "124426.802500", "124428.810000", "124430.817500", "124432.827500", "124434.835000", "124436.842500", "124438.850000", "124440.857500", "124442.867500", "124444.875000", "124446.882500", "124448.890000", "124450.897500", "124452.907500", "124454.915000", "124456.922500", "124458.930000", "124500.940000", "124502.947500", "124504.955000"],
      "ContentTime": ["123943.578000", "123943.578000", "124023.578000", "124023.578000", "124023.578000", "124023.578000", "124023.578000", "124023.578000", "124023.578000", "124023.578000", "124023.593000", "124023.593000", "124023.593000", "124023.593000", "124023.593000", "124023.593000", "124023.593000", "124023.609000", "124023.609000", "124023.609000", "124023.609000", "124023.609000", "124103.562000", "124103.578000", "124103.578000", "124103.578000", "124103.578000", "124103.578000", "124103.578000", "124103.593000", "124103.593000", "124103.593000", "124103.609000", "124103.609000", "124103.609000", "124103.609000", "124103.609000", "124103.609000", "124103.609000", "124103.609000", "124103.609000", "124103.625000", "124143.578000", "124143.578000", "124143.578000", "124143.578000", "124143.578000", "124143.578000", "124143.578000", "124143.578000", "124143.593000", "124143.593000", "124143.593000", "124143.593000", "124143.593000", "124143.593000", "124143.593000", "124143.593000", "124143.609000", "124143.609000", "124143.609000", "124143.609000", "124223.578000", "124223.578000", "124223.578000", "124223.578000", "124223.578000", "124223.578000", "124223.593000", "124223.593000", "124223.593000", "124223.593000", "124223.593000", "124223.593000", "124223.593000", "124223.593000", "124223.609000", "124223.609000", "124223.609000", "124223.609000", "124223.609000", "124223.609000", "124303.578000", "124303.578000", "124303.578000", "124303.578000", "124303.578000", "124303.578000", "124303.578000", "124303.578000", "124303.593000", "124303.593000", "124303.593000", "124303.593000", "124303.593000", "124303.609000", "124303.609000", "124303.609000", "124303.609000", "124303.609000", "124303.609000", "124303.609000", "124343.578000", "124343.578000", "124343.578000", "124343.578000", "124343.593000", "124343.593000", "124343.593000", "124343.593000", "124343.593000", "124343.593000", "124343.593000", "124343.593000", "124343.609000", "124343.609000", "124343.609000", "124343.609000", "124343.609000", "124343.609000", "124343.609000", "124343.625000", "124423.578000", "124423.578000", "124423.578000", "124423.578000", "124423.578000", "124423.578000", "124423.578000", "124423.593000", "124423.593000", "124423.593000", "124423.593000", "124423.593000", "124423.593000", "124423.593000", "124423.593000", "124423.609000", "124423.609000", "124423.609000", "124423.609000", "124423.609000", "124503.578000", "124503.578000", "124503.578000", "124503.578000", "124503.578000", "124503.593000", "124503.593000", "124503.593000", "124503.593000", "124503.593000", "124503.593000", "124503.593000", "124503.593000", "124503.609000", "124503.609000", "124503.609000", "124503.609000", "124503.609000", "124503.609000", "124503.609000", "124506.468000", "124506.468000"],
      "InstanceCreationTime": ["123943.578000", "123943.578000", "124023.578000", "124023.578000", "124023.578000", "124023.578000", "124023.578000", "124023.578000", "124023.578000", "124023.578000", "124023.593000", "124023.593000", "124023.593000", "124023.593000", "124023.593000", "124023.593000", "124023.593000", "124023.609000", "124023.609000", "124023.609000", "124023.609000", "124023.609000", "124103.562000", "124103.578000", "124103.578000", "124103.578000", "124103.578000", "124103.578000", "124103.578000", "124103.593000", "124103.593000", "124103.593000", "124103.609000", "124103.609000", "124103.609000", "124103.609000", "124103.609000", "124103.609000", "124103.609000", "124103.609000", "124103.609000", "124103.625000", "124143.578000", "124143.578000", "124143.578000", "124143.578000", "124143.578000", "124143.578000", "124143.578000", "124143.578000", "124143.593000", "124143.593000", "124143.593000", "124143.593000", "124143.593000", "124143.593000", "124143.593000", "124143.593000", "124143.609000", "124143.609000", "124143.609000", "124143.609000", "124223.578000", "124223.578000", "124223.578000", "124223.578000", "124223.578000", "124223.578000", "124223.593000", "124223.593000", "124223.593000", "124223.593000", "124223.593000", "124223.593000", "124223.593000", "124223.593000", "124223.609000", "124223.609000", "124223.609000", "124223.609000", "124223.609000", "124223.609000", "124303.578000", "124303.578000", "124303.578000", "124303.578000", "124303.578000", "124303.578000", "124303.578000", "124303.578000", "124303.593000", "124303.593000", "124303.593000", "124303.593000", "124303.593000", "124303.609000", "124303.609000", "124303.609000", "124303.609000", "124303.609000", "124303.609000", "124303.609000", "124343.578000", "124343.578000", "124343.578000", "124343.578000", "124343.593000", "124343.593000", "124343.593000", "124343.593000", "124343.593000", "124343.593000", "124343.593000", "124343.593000", "124343.609000", "124343.609000", "124343.609000", "124343.609000", "124343.609000", "124343.609000", "124343.609000", "124343.625000", "124423.578000", "124423.578000", "124423.578000", "124423.578000", "124423.578000", "124423.578000", "124423.578000", "124423.593000", "124423.593000", "124423.593000", "124423.593000", "124423.593000", "124423.593000", "124423.593000", "124423.593000", "124423.609000", "124423.609000", "124423.609000", "124423.609000", "124423.609000", "124503.578000", "124503.578000", "124503.578000", "124503.578000", "124503.578000", "124503.593000", "124503.593000", "124503.593000", "124503.593000", "124503.593000", "124503.593000", "124503.593000", "124503.593000", "124503.609000", "124503.609000", "124503.609000", "124503.609000", "124503.609000", "124503.609000", "124503.609000", "124506.468000", "124506.468000"],
      "InstanceNumber": [1, 2, 3, 4, 5, 6, 7, 8, 9, 10, 11, 12, 13, 14, 15, 16, 17, 18, 19, 20, 21, 22, 23, 24, 25, 26, 27, 28, 29, 30, 31, 32, 33, 34, 35, 36, 37, 38, 39, 40, 41, 42, 43, 44, 45, 46, 47, 48, 49, 50, 51, 52, 53, 54, 55, 56, 57, 58, 59, 60, 61, 62, 63, 64, 65, 66, 67, 68, 69, 70, 71, 72, 73, 74, 75, 76, 77, 78, 79, 80, 81, 82, 83, 84, 85, 86, 87, 88, 89, 90, 91, 92, 93, 94, 95, 96, 97, 98, 99, 100, 101, 102, 103, 104, 105, 106, 107, 108, 109, 110, 111, 112, 113, 114, 115, 116, 117, 118, 119, 120, 121, 122, 123, 124, 125, 126, 127, 128, 129, 130, 131, 132, 133, 134, 135, 136, 137, 138, 139, 140, 141, 142, 143, 144, 145, 146, 147, 148, 149, 150, 151, 152, 153, 154, 155, 156, 157, 158, 159, 160, 161, 162, 163, 164],
      "LargestImagePixelValue": [2060, 2038, 1896, 1891, 1897, 1889, 1882, 1863, 1852, 1871, 1874, 1882, 1878, 1889, 1879, 1847, 1877, 1875, 1888, 1885, 1872, 1884, 1871, 1867, 1891, 1882, 1886, 1878, 1871, 1874, 1840, 1860, 1849, 1879, 1857, 1864, 1871, 1854, 1869, 1859, 1879, 1865, 1858, 1845, 1853, 1852, 1877, 1858, 1851, 1858, 1856, 1849, 1875, 1864, 1852, 1850, 1846, 1861, 1848, 1863, 1872, 1863, 1887, 1878, 1882, 1869, 1923, 2035, 1796, 1829, 1844, 1987, 1889, 1916, 1902, 1893, 1868, 1885, 1909, 1867, 1876, 1889, 1876, 1871, 1873, 1864, 1877, 1877, 1867, 1878, 1882, 1873, 1872, 1865, 1873, 1862, 1860, 1855, 1860, 1862, 1900, 1872, 1879, 1875, 1882, 1897, 1873, 1863, 1887, 2071, 1817, 1833, 1855, 1897, 1901, 1892, 1906, 1880, 1878, 1882, 1882, 1872, 1886, 1903, 1876, 1885, 1894, 1887, 1880, 1888, 1886, 1864, 1879, 1894, 1891, 1880, 1895, 1869, 1888, 1881, 1888, 1885, 1884, 1870, 1882, 1886, 1882, 1891, 1891, 1867, 1879, 1989, 1962, 1844, 1834, 1888, 1908, 1893, 1904, 1917, 1915, 1894, 1869, 1907],
      "WindowCenter": [746.0, 742.0, 739.0, 738.0, 739.0, 740.0, 742.0, 743.0, 744.0, 745.0, 745.0, 744.0, 744.0, 744.0, 744.0, 744.0, 745.0, 746.0, 745.0, 745.0, 746.0, 747.0, 747.0, 746.0, 746.0, 746.0, 745.0, 747.0, 748.0, 748.0, 746.0, 747.0, 746.0, 745.0, 744.0, 745.0, 746.0, 746.0, 746.0, 746.0, 747.0, 747.0, 748.0, 747.0, 746.0, 746.0, 746.0, 746.0, 746.0, 747.0, 747.0, 746.0, 747.0, 747.0, 748.0, 748.0, 747.0, 748.0, 748.0, 748.0, 748.0, 747.0, 747.0, 747.0, 747.0, 747.0, 748.0, 750.0, 747.0, 747.0, 745.0, 742.0, 739.0, 738.0, 739.0, 740.0, 742.0, 743.0, 745.0, 744.0, 745.0, 747.0, 747.0, 746.0, 746.0, 747.0, 747.0, 747.0, 747.0, 747.0, 748.0, 749.0, 748.0, 748.0, 747.0, 747.0, 746.0, 746.0, 746.0, 747.0, 748.0, 748.0, 749.0, 749.0, 749.0, 748.0, 748.0, 747.0, 748.0, 750.0, 747.0, 748.0, 746.0, 742.0, 739.0, 739.0, 739.0, 741.0, 743.0, 744.0, 744.0, 745.0, 746.0, 747.0, 747.0, 746.0, 746.0, 746.0, 747.0, 748.0, 748.0, 749.0, 748.0, 748.0, 747.0, 747.0, 747.0, 747.0, 748.0, 748.0, 749.0, 749.0, 749.0, 748.0, 749.0, 750.0, 749.0, 748.0, 748.0, 747.0, 747.0, 749.0, 751.0, 748.0, 747.0, 745.0, 742.0, 739.0, 739.0, 740.0, 742.0, 743.0, 745.0, 746.0],
      "WindowWidth": [1611.0, 1600.0, 1594.0, 1590.0, 1593.0, 1596.0, 1601.0, 1605.0, 1607.0, 1608.0, 1608.0, 1608.0, 1608.0, 1606.0, 1606.0, 1607.0, 1610.0, 1611.0, 1609.0, 1609.0, 1614.0, 1614.0, 1615.0, 1613.0, 1612.0, 1612.0, 1611.0, 1615.0, 1616.0, 1616.0, 1613.0, 1615.0, 1612.0, 1609.0, 1607.0, 1609.0, 1611.0, 1611.0, 1612.0, 1614.0, 1614.0, 1615.0, 1618.0, 1615.0, 1613.0, 1613.0, 1612.0, 1612.0, 1613.0, 1615.0, 1614.0, 1611.0, 1615.0, 1615.0, 1617.0, 1617.0, 1616.0, 1619.0, 1617.0, 1616.0, 1617.0, 1616.0, 1616.0, 1614.0, 1615.0, 1615.0, 1619.0, 1625.0, 1612.0, 1615.0, 1608.0, 1600.0, 1593.0, 1591.0, 1592.0, 1597.0, 1602.0, 1605.0, 1608.0, 1608.0, 1610.0, 1614.0, 1613.0, 1612.0, 1612.0, 1614.0, 1615.0, 1615.0, 1615.0, 1615.0, 1618.0, 1620.0, 1616.0, 1616.0, 1615.0, 1613.0, 1612.0, 1613.0, 1613.0, 1615.0, 1619.0, 1618.0, 1620.0, 1619.0, 1620.0, 1617.0, 1616.0, 1614.0, 1618.0, 1624.0, 1613.0, 1616.0, 1610.0, 1600.0, 1593.0, 1593.0, 1595.0, 1598.0, 1604.0, 1607.0, 1608.0, 1610.0, 1612.0, 1615.0, 1614.0, 1613.0, 1611.0, 1612.0, 1615.0, 1617.0, 1618.0, 1619.0, 1619.0, 1617.0, 1616.0, 1615.0, 1616.0, 1615.0, 1617.0, 1618.0, 1620.0, 1621.0, 1620.0, 1617.0, 1620.0, 1623.0, 1621.0, 1618.0, 1617.0, 1615.0, 1616.0, 1623.0, 1625.0, 1615.0, 1614.0, 1608.0, 1601.0, 1594.0, 1592.0, 1597.0, 1601.0, 1605.0, 1609.0, 1611.0]
    },
    "slices": {}
  }
}