{
  "AcquisitionMatrixPE": 64,
  "AcquisitionNumber": 1,
  "AcquisitionTime": "12:20:1.297500",
  "BandwidthPerPixelPhaseEncode": 33.967,
  "BaseResolution": 64,
  "CoilCombinationMethod": "Sum of Squares",
  "CoilString": "C:HEA;HEP",
  "ConversionSoftware": "dcm2niix",
  "ConversionSoftwareVersion": "v1.0.20220720",
  "DerivedVendorReportedEchoSpacing": 0.000460005,
  "DeviceSerialNumber": "35193",
  "DwellTime": 3.1e-06,
  "EchoTime": 0.03,
  "EffectiveEchoSpacing": 0.000460005,
  "FlipAngle": 90,
  "HeudiconvVersion": "1.1.6",
  "ImageOrientationPatientDICOM": [0.999536, 0.00698134, 0.0296655, -0.00697827, 0.999976, -0.00020711],
  "ImageOrientationText": "Tra>Sag(1.7)",
  "ImageType": [
    "ORIGINAL",
    "PRIMARY",
    "M",
    "ND",
    "MOSAIC"
],
  "ImagingFrequency": 123.254,
  "InPlanePhaseEncodingDirectionDICOM": "COL",
  "InstitutionAddress": "Xinjiekouwai Street No 19,Beijing,Haidian District,CN,100875",
  "InstitutionName": "BNU MRI Center",
  "InstitutionalDepartmentName": "Department",
  "MRAcquisitionType": "2D",
  "MagneticFieldStrength": 3,
  "Manufacturer": "Siemens",
  "ManufacturersModelName": "TrioTim",
  "MatrixCoilMode": "SENSE",
  "Modality": "MR",
  "NonlinearGradientCorrection": false,
  "PartialFourier": 1,
  "PatientPosition": "HFS",
  "PercentPhaseFOV": 100,
  "PercentSampling": 100,
  "PhaseEncodingDirection": "j-",
  "PhaseEncodingSteps": 64,
  "PhaseResolution": 1,
  "PixelBandwidth": 2520,
  "ProcedureStepDescription": "BNU_cst_2015^Guo.TaoMei",
  "ProtocolName": "ge_func_3x3x4_164",
  "PulseSequenceDetails": "%SiemensSeq%\\ep2d_bold",
  "ReceiveCoilName": "HeadMatrix",
  "ReconMatrixPE": 64,
  "RepetitionTime": 2,
  "SAR": 0.167203,
  "ScanOptions": "FS",
  "ScanningSequence": "EP",
  "SequenceName": "*epfid2d1_64",
  "SequenceVariant": "SK",
  "SeriesDescription": "ge_func_3x3x4_164",
  "SeriesNumber": 2,
  "ShimSetting": [-4511, -19413, -9867, 941, -78, -242, -27, 23],
  "SliceThickness": 4,
  "SliceTiming": [0, 1.035, 0.0625, 1.095, 0.1225, 1.1575, 0.1825, 1.2175, 0.245, 1.2775, 0.305, 1.34, 0.365, 1.4, 0.4275, 1.46, 0.4875, 1.5225, 0.5475, 1.5825, 0.61, 1.6425, 0.67, 1.705, 0.73, 1.765, 0.7925, 1.825, 0.8525, 1.8875, 0.9125, 1.9475, 0.975],
  "SoftwareVersions": "syngo MR B17",
  "SpacingBetweenSlices": 4.6,
  "StationName": "MRC35193",
  "TaskName": "CognitiveControl",
  "TotalReadoutTime": 0.0289803,
  "TxRefAmp": 383.459,
  "dcmmeta_affine": [
    [-3.1235485076904297, -0.02180708386003971, 0.13646471500396729, 109.24131774902344],
    [-0.021816685795783997, 3.1249239444732666, 1.9732377953829427e-09, -87.4034194946289],
    [0.09270475059747696, 0.000647217791993171, 4.597975254058838, -77.22891998291016],
    [0.0, 0.0, 0.0, 1.0]
],
  "dcmmeta_reorient_transform": [
    [0.0, -1.0, 0.0, 63.0],
    [1.0, 0.0, 0.0, 0.0],
    [0.0, 0.0, 1.0, 0.0],
    [0.0, 0.0, 0.0, 1.0]
],
  "dcmmeta_shape": [64, 64, 33, 164],
  "dcmmeta_slice_dim": 2,
  "dcmmeta_version": 0.6,
  "global": {
    "const": {
      "AcquisitionMatrix": [64, 0, 0, 64],
      "AngioFlag": "N",
      "BitsAllocated": 16,
      "BitsStored": 12,
      "Columns": 384,
      "EchoNumbers": 1,
      "EchoTime": 30.0,
      "EchoTrainLength": 1,
      "FlipAngle": 90.0,
      "HighBit": 11,
      "ImageOrientationPatient": [0.99953550100336, 0.00698133962156, 0.02966552091317, -0.0069782668683, 0.9999756301516, -0.000207109695],
      "ImagePositionPatient": [-604.14608536169, -612.94526664936, -91.917348671841],
      "ImageType": [
        "ORIGINAL",
        "PRIMARY",
        "M",
        "ND",
        "MOSAIC"
],
      "ImagedNucleus": "1H",
      "ImagingFrequency": 123.253706,
      "InPlanePhaseEncodingDirection": "COL",
      "MRAcquisitionType": "2D",
      "MagneticFieldStrength": 3.0,
      "Manufacturer": "SIEMENS",
      "ManufacturerModelName": "TrioTim",
      "Modality": "MR",
      "NumberOfAverages": 1.0,
      "NumberOfPhaseEncodingSteps": 64,
      "PercentPhaseFieldOfView": 100.0,
      "PercentSampling": 100.0,
      "PerformedProcedureStepStartTime": "121202.500000",
      "PhotometricInterpretation": "MONOCHROME2",
      "PixelBandwidth": 2520.0,
      "PixelRepresentation": 0,
      "PixelSpacing": [3.125, 3.125],
      "ProtocolName": "ge_func_3x3x4_164",
      "RepetitionTime": 2000.0,
      "Rows": 384,
      "SAR": 0.16720329948918,
      "SamplesPerPixel": 1,
      "ScanOptions": "FS",
      "ScanningSequence": "EP",
      "SequenceName": "*epfid2d1_64",
      "SequenceVariant": "SK",
      "SeriesDescription": "ge_func_3x3x4_164",
      "SeriesNumber": 2,
      "SeriesTime": "122023.578000",
      "SliceLocation": -73.954146815918,
      "SliceThickness": 4.0,
      "SmallestImagePixelValue": 0,
      "SoftwareVersions": "syngo MR B17",
      "SpacingBetweenSlices": 4.5999998982079,
      "SpecificCharacterSet": "ISO_IR 100",
      "StudyID": "1",
      "StudyTime": "121202.421000",
      "TransmitCoilName": "Body",
      "VariableFlipAngleFlag": "N",
      "WindowCenterWidthExplanation": "Algo1",
      "dBdt": 0.0},
    "slices": {}
  },
  "time": {
    "samples": {
      "AcquisitionNumber": [1, 2, 3, 4, 5, 6, 7, 8, 9, 10, 11, 12, 13, 14, 15, 16, 17, 18, 19, 20, 21, 22, 23, 24, 25, 26, 27, 28, 29, 30, 31, 32, 33, 34, 35, 36, 37, 38, 39, 40, 41, 42, 43, 44, 45, 46, 47, 48, 49, 50, 51, 52, 53, 54, 55, 56, 57, 58, 59, 60, 61, 62, 63, 64, 65, 66, 67, 68, 69, 70, 71, 72, 73, 74, 75, 76, 77, 78, 79, 80, 81, 82, 83, 84, 85, 86, 87, 88, 89, 90, 91, 92, 93, 94, 95, 96, 97, 98, 99, 100, 101, 102, 103, 104, 105, 106, 107, 108, 109, 110, 111, 112, 113, 114, 115, 116, 117, 118, 119, 120, 121, 122, 123, 124, 125, 126, 127, 128, 129, 130, 131, 132, 133, 134, 135, 136, 137, 138, 139, 140, 141, 142, 143, 144, 145, 146, 147, 148, 149, 150, 151, 152, 153, 154, 155, 156, 157, 158, 159, 160, 161, 162, 163, 164],
      "AcquisitionTime": ["122001.297500", "122003.305000", "122005.315000", "122007.322500", "122009.330000", "122011.337500", "122013.347500", "122015.355000", "122017.362500", "122019.370000", "122021.377500", "122023.387500", "122025.395000", "122027.402500", "122029.410000", "122031.417500", "122033.427500", "122035.435000", "122037.442500", "122039.450000", "122041.460000", "122043.467500", "122045.475000", "122047.482500", "122049.490000", "122051.500000", "122053.507500", "122055.515000", "122057.522500", "122059.530000", "122101.540000", "122103.547500", "122105.555000", "122107.562500", "122109.572500", "122111.580000", "122113.587500", "122115.595000", "122117.602500", "122119.612500", "122121.620000", "122123.627500", "122125.635000", "122127.642500", "122129.652500", "122131.660000", "122133.667500", "122135.675000", "122137.682500", "122139.692500", "122141.700000", "122143.707500", "122145.715000", "122147.725000", "122149.732500", "122151.740000", "122153.747500", "122155.755000", "122157.765000", "122159.772500", "122201.780000", "122203.787500", "122205.795000", "122207.805000", "122209.812500", "122211.820000", "122213.827500", "122215.837500", "122217.845000", "122219.852500", "122221.860000", "122223.867500", "122225.877500", "122227.885000", "122229.892500", "122231.900000", "122233.907500", "122235.917500", "122237.925000", "122239.932500", "122241.940000", "122243.950000", "122245.957500", "122247.965000", "122249.972500", "122251.980000", "122253.990000", "122255.997500", "122258.005000", "122300.012500", "122302.020000", "122304.030000", "122306.037500", "122308.045000", "122310.052500", "122312.062500", "122314.070000", "122316.077500", "122318.085000", "122320.092500", "122322.102500", "122324.110000", "122326.117500", "122328.125000", "122330.132500", "122332.142500", "122334.150000", "122336.157500", "122338.165000", "122340.172500", "122342.182500", "122344.190000", "122346.197500", "122348.205000", "122350.215000", "122352.222500", "122354.230000", "122356.237500", "122358.245000", "122400.255000", "122402.262500", "122404.270000", "122406.277500", "122408.285000", "122410.295000", "122412.302500", "122414.310000", "122416.317500", "122418.327500", "122420.335000", "122422.342500", "122424.350000", "122426.357500", "122428.367500", "122430.375000", "122432.382500", "122434.390000", "122436.397500", "122438.407500", "122440.415000", "122442.422500", "122444.430000", "122446.440000", "122448.447500", "122450.455000", "122452.462500", "122454.470000", "122456.480000", "122458.487500", "122500.495000", "122502.502500", "122504.510000", "122506.520000", "122508.527500", "122510.535000", "122512.542500", "122514.550000", "122516.560000", "122518.567500", "122520.575000", "122522.582500", "122524.592500", "122526.600000", "122528.607500"],
      "ContentTime": ["122023.578000", "122023.578000", "122023.578000", "122023.578000", "122023.593000", "122023.593000", "122023.593000", "122023.593000", "122023.593000", "122023.593000", "122103.578000", "122103.578000", "122103.578000", "122103.578000", "122103.578000", "122103.578000", "122103.593000", "122103.593000", "122103.593000", "122103.593000", "122103.593000", "122103.609000", "122103.609000", "122103.609000", "122103.609000", "122103.609000", "122103.609000", "122103.609000", "122103.609000", "122103.609000", "122143.578000", "122143.578000", "122143.578000", "122143.578000", "122143.578000", "122143.578000", "122143.578000", "122143.578000", "122143.593000", "122143.593000", "122143.593000", "122143.593000", "122143.593000", "122143.593000", "122143.593000", "122143.593000", "122143.609000", "122143.609000", "122143.609000", "122143.609000", "122223.578000", "122223.578000", "122223.578000", "122223.578000", "122223.578000", "122223.578000", "122223.578000", "122223.578000", "122223.593000", "122223.593000", "122223.593000", "122223.593000", "122223.593000", "122223.593000", "122223.593000", "122223.593000", "122223.609000", "122223.609000", "122223.609000", "122223.609000", "122303.578000", "122303.578000", "122303.578000", "122303.578000", "122303.578000", "122303.578000", "122303.593000", "122303.593000", "122303.593000", "122303.593000", "122303.609000", "122303.609000", "122303.609000", "122303.609000", "122303.609000", "122303.609000", "122303.609000", "122303.609000", "122303.625000", "122303.625000", "122343.578000", "122343.578000", "122343.578000", "122343.578000", "122343.578000", "122343.578000", "122343.578000", "122343.578000", "122343.593000", "122343.593000", "122343.593000", "122343.593000", "122343.593000", "122343.593000", "122343.593000", "122343.593000", "122343.609000", "122343.609000", "122343.609000", "122343.609000", "122423.578000", "122423.578000", "122423.578000", "122423.578000", "122423.578000", "122423.578000", "122423.578000", "122423.593000", "122423.593000", "122423.593000", "122423.593000", "122423.593000", "122423.593000", "122423.593000", "122423.593000", "122423.593000", "122423.609000", "122423.609000", "122423.609000", "122423.609000", "122503.578000", "122503.578000", "122503.578000", "122503.578000", "122503.578000", "122503.578000", "122503.578000", "122503.578000", "122503.593000", "122503.593000", "122503.593000", "122503.593000", "122503.593000", "122503.609000", "122503.609000", "122503.609000", "122503.609000", "122503.609000", "122503.625000", "122503.625000", "122530.375000", "122530.375000", "122530.375000", "122530.375000", "122530.375000", "122530.375000", "122530.390000", "122530.390000", "122530.390000", "122530.390000", "122530.390000", "122530.390000", "122530.390000", "122530.390000"],
      "InstanceCreationTime": ["122023.578000", "122023.578000", "122023.578000", "122023.578000", "122023.593000", "122023.593000", "122023.593000", "122023.593000", "122023.593000", "122023.593000", "122103.578000", "122103.578000", "122103.578000", "122103.578000", "122103.578000", "122103.578000", "122103.593000", "122103.593000", "122103.593000", "122103.593000", "122103.593000", "122103.609000", "122103.609000", "122103.609000", "122103.609000", "122103.609000", "122103.609000", "122103.609000", "122103.609000", "122103.609000", "122143.578000", "122143.578000", "122143.578000", "122143.578000", "122143.578000", "122143.578000", "122143.578000", "122143.578000", "122143.593000", "122143.593000", "122143.593000", "122143.593000", "122143.593000", "122143.593000", "122143.593000", "122143.593000", "122143.609000", "122143.609000", "122143.609000", "122143.609000", "122223.578000", "122223.578000", "122223.578000", "122223.578000", "122223.578000", "122223.578000", "122223.578000", "122223.578000", "122223.593000", "122223.593000", "122223.593000", "122223.593000", "122223.593000", "122223.593000", "122223.593000", "122223.593000", "122223.609000", "122223.609000", "122223.609000", "122223.609000", "122303.578000", "122303.578000", "122303.578000", "122303.578000", "122303.578000", "122303.578000", "122303.593000", "122303.593000", "122303.593000", "122303.593000", "122303.609000", "122303.609000", "122303.609000", "122303.609000", "122303.609000", "122303.609000", "122303.609000", "122303.609000", "122303.625000", "122303.625000", "122343.578000", "122343.578000", "122343.578000", "122343.578000", "122343.578000", "122343.578000", "122343.578000", "122343.578000", "122343.593000", "122343.593000", "122343.593000", "122343.593000", "122343.593000", "122343.593000", "122343.593000", "122343.593000", "122343.609000", "122343.609000", "122343.609000", "122343.609000", "122423.578000", "122423.578000", "122423.578000", "122423.578000", "122423.578000", "122423.578000", "122423.578000", "122423.593000", "122423.593000", "122423.593000", "122423.593000", "122423.593000", "122423.593000", "122423.593000", "122423.593000", "122423.593000", "122423.609000", "122423.609000", "122423.609000", "122423.609000", "122503.578000", "122503.578000", "122503.578000", "122503.578000", "122503.578000", "122503.578000", "122503.578000", "122503.578000", "122503.593000", "122503.593000", "122503.593000", "122503.593000", "122503.593000", "122503.609000", "122503.609000", "122503.609000", "122503.609000", "122503.609000", "122503.625000", "122503.625000", "122530.375000", "122530.375000", "122530.375000", "122530.375000", "122530.375000", "122530.375000", "122530.390000", "122530.390000", "122530.390000", "122530.390000", "122530.390000", "122530.390000", "122530.390000", "122530.390000"],
      "InstanceNumber": [1, 2, 3, 4, 5, 6, 7, 8, 9, 10, 11, 12, 13, 14, 15, 16, 17, 18, 19, 20, 21, 22, 23, 24, 25, 26, 27, 28, 29, 30, 31, 32, 33, 34, 35, 36, 37, 38, 39, 40, 41, 42, 43, 44, 45, 46, 47, 48, 49, 50, 51, 52, 53, 54, 55, 56, 57, 58, 59, 60, 61, 62, 63, 64, 65, 66, 67, 68, 69, 70, 71, 72, 73, 74, 75, 76, 77, 78, 79, 80, 81, 82, 83, 84, 85, 86, 87, 88, 89, 90, 91, 92, 93, 94, 95, 96, 97, 98, 99, 100, 101, 102, 103, 104, 105, 106, 107, 108, 109, 110, 111, 112, 113, 114, 115, 116, 117, 118, 119, 120, 121, 122, 123, 124, 125, 126, 127, 128, 129, 130, 131, 132, 133, 134, 135, 136, 137, 138, 139, 140, 141, 142, 143, 144, 145, 146, 147, 148, 149, 150, 151, 152, 153, 154, 155, 156, 157, 158, 159, 160, 161, 162, 163, 164],
      "LargestImagePixelValue": [1955, 1906, 1923, 1884, 1874, 1881, 1891, 1878, 1860, 1874, 1856, 1870, 1856, 1863, 1873, 1867, 1856, 1861, 1844, 1954, 1779, 1781, 1792, 1804, 1800, 1824, 1842, 1837, 1841, 1839, 1835, 1837, 1839, 1812, 1823, 1823, 1851, 1836, 1846, 1844, 1866, 1839, 1854, 1850, 1859, 1865, 1864, 1877, 1885, 1873, 1912, 1882, 1918, 1904, 1916, 1894, 1922, 1918, 1902, 1892, 1891, 1899, 1912, 1921, 1929, 1934, 1908, 1917, 1956, 1949, 1946, 1955, 1956, 1949, 1938, 1943, 1945, 1938, 1952, 1969, 1954, 1969, 1934, 1922, 1954, 1935, 1925, 1966, 1967, 1968, 1969, 1980, 1953, 1970, 1956, 1975, 1970, 1985, 1988, 1974, 1977, 1962, 1984, 1977, 1969, 2051, 1992, 2011, 1982, 1980, 1983, 1996, 2004, 2009, 2013, 1995, 1996, 2018, 2009, 1996, 2011, 1980, 2007, 1977, 1970, 1983, 1984, 1969, 1973, 1960, 1969, 1993, 1983, 1980, 1983, 1981, 1964, 1971, 1988, 1990, 2014, 2013, 1999, 2002, 1988, 1985, 1996, 2003, 2020, 2011, 1988, 2007, 1998, 2020, 1997, 1984, 2136, 2003, 2014, 2016, 1995, 2005, 1996, 2041],
      "WindowCenter": [745.0, 742.0, 743.0, 741.0, 741.0, 741.0, 742.0, 741.0, 741.0, 741.0, 741.0, 741.0, 741.0, 741.0, 742.0, 743.0, 743.0, 742.0, 743.0, 746.0, 742.0, 741.0, 738.0, 735.0, 734.0, 734.0, 735.0, 736.0, 737.0, 739.0, 740.0, 741.0, 742.0, 742.0, 741.0, 743.0, 744.0, 744.0, 744.0, 743.0, 744.0, 744.0, 744.0, 744.0, 744.0, 744.0, 744.0, 744.0, 744.0, 744.0, 744.0, 744.0, 744.0, 744.0, 745.0, 744.0, 744.0, 743.0, 744.0, 744.0, 744.0, 744.0, 743.0, 743.0, 743.0, 743.0, 744.0, 744.0, 744.0, 744.0, 744.0, 743.0, 744.0, 745.0, 745.0, 743.0, 743.0, 745.0, 746.0, 746.0, 745.0, 744.0, 744.0, 744.0, 744.0, 744.0, 744.0, 744.0, 744.0, 744.0, 744.0, 745.0, 744.0, 744.0, 744.0, 744.0, 744.0, 744.0, 744.0, 744.0, 744.0, 744.0, 744.0, 744.0, 744.0, 746.0, 746.0, 746.0, 744.0, 741.0, 739.0, 738.0, 738.0, 740.0, 741.0, 741.0, 742.0, 744.0, 745.0, 745.0, 745.0, 745.0, 746.0, 746.0, 746.0, 746.0, 746.0, 747.0, 746.0, 746.0, 746.0, 746.0, 747.0, 747.0, 747.0, 747.0, 746.0, 746.0, 746.0, 746.0, 745.0, 746.0, 745.0, 745.0, 745.0, 745.0, 745.0, 746.0, 746.0, 746.0, 746.0, 746.0, 746.0, 745.0, 745.0, 745.0, 748.0, 748.0, 747.0, 745.0, 741.0, 739.0, 737.0, 738.0],
      "WindowWidth": [1610.0, 1602.0, 1604.0, 1600.0, 1599.0, 1600.0, 1603.0, 1599.0, 1598.0, 1600.0, 1600.0, 1600.0, 1599.0, 1601.0, 1601.0, 1604.0, 1604.0, 1600.0, 1605.0, 1613.0, 1600.0, 1598.0, 1591.0, 1582.0, 1578.0, 1579.0, 1583.0, 1586.0, 1589.0, 1593.0, 1597.0, 1599.0, 1602.0, 1600.0, 1599.0, 1603.0, 1606.0, 1607.0, 1607.0, 1605.0, 1607.0, 1607.0, 1607.0, 1606.0, 1607.0, 1606.0, 1606.0, 1608.0, 1606.0, 1606.0, 1606.0, 1606.0, 1608.0, 1608.0, 1609.0, 1607.0, 1605.0, 1604.0, 1606.0, 1607.0, 1607.0, 1606.0, 1605.0, 1604.0, 1605.0, 1605.0, 1606.0, 1606.0, 1608.0, 1608.0, 1607.0, 1605.0, 1606.0, 1610.0, 1608.0, 1605.0, 1606.0, 1608.0, 1612.0, 1611.0, 1609.0, 1608.0, 1606.0, 1605.0, 1607.0, 1608.0, 1607.0, 1606.0, 1606.0, 1607.0, 1608.0, 1609.0, 1606.0, 1607.0, 1606.0, 1608.0, 1608.0, 1607.0, 1608.0, 1608.0, 1606.0, 1606.0, 1606.0, 1607.0, 1606.0, 1614.0, 1613.0, 1611.0, 1606.0, 1598.0, 1592.0, 1590.0, 1591.0, 1595.0, 1598.0, 1600.0, 1602.0, 1606.0, 1609.0, 1609.0, 1610.0, 1610.0, 1612.0, 1612.0, 1613.0, 1612.0, 1611.0, 1615.0, 1613.0, 1611.0, 1612.0, 1613.0, 1614.0, 1615.0, 1616.0, 1615.0, 1612.0, 1612.0, 1612.0, 1612.0, 1611.0, 1612.0, 1611.0, 1610.0, 1610.0, 1608.0, 1610.0, 1612.0, 1611.0, 1612.0, 1611.0, 1611.0, 1612.0, 1610.0, 1609.0, 1610.0, 1619.0, 1618.0, 1614.0, 1608.0, 1599.0, 1592.0, 1588.0, 1591.0]
    },
    "slices": {}
  }
}