{
  "AcquisitionMatrixPE": 64,
  "AcquisitionNumber": 1,
  "AcquisitionTime": "16:28:18.870000",
  "BandwidthPerPixelPhaseEncode": 33.967,
  "BaseResolution": 64,
  "CoilCombinationMethod": "Sum of Squares",
  "CoilString": "C:HEA;HEP",
  "ConversionSoftware": "dcm2niix",
  "ConversionSoftwareVersion": "v1.0.20220720",
  "DerivedVendorReportedEchoSpacing": 0.000460005,
  "DeviceSerialNumber": "35193",
  "DwellTime": 3.1e-06,
  "EchoTime": 0.03,
  "EffectiveEchoSpacing": 0.000460005,
  "FlipAngle": 90,
  "HeudiconvVersion": "1.1.6",
  "ImageOrientationPatientDICOM": [1, 0, 0, 0, 1, 0],
  "ImageOrientationText": "Tra",
  "ImageType": [
    "ORIGINAL",
    "PRIMARY",
    "M",
    "ND",
    "MOSAIC"
],
  "ImagingFrequency": 123.254,
  "InPlanePhaseEncodingDirectionDICOM": "COL",
  "InstitutionAddress": "Xinjiekouwai Street No 19,Beijing,Haidian District,CN,100875",
  "InstitutionName": "BNU MRI Center",
  "InstitutionalDepartmentName": "Department",
  "MRAcquisitionType": "2D",
  "MagneticFieldStrength": 3,
  "Manufacturer": "Siemens",
  "ManufacturersModelName": "TrioTim",
  "MatrixCoilMode": "SENSE",
  "Modality": "MR",
  "NonlinearGradientCorrection": false,
  "PartialFourier": 1,
  "PatientPosition": "HFS",
  "PercentPhaseFOV": 100,
  "PercentSampling": 100,
  "PhaseEncodingDirection": "j-",
  "PhaseEncodingSteps": 64,
  "PhaseResolution": 1,
  "PixelBandwidth": 2520,
  "ProcedureStepDescription": "BNU_cst_2015^Guo.TaoMei",
  "ProtocolName": "ge_func_3x3x4_164",
  "PulseSequenceDetails": "%SiemensSeq%\\ep2d_bold",
  "ReceiveCoilName": "HeadMatrix",
  "ReconMatrixPE": 64,
  "RepetitionTime": 2,
  "SAR": 0.168808,
  "ScanOptions": "FS",
  "ScanningSequence": "EP",
  "SequenceName": "*epfid2d1_64",
  "SequenceVariant": "SK",
  "SeriesDescription": "ge_func_3x3x4_164",
  "SeriesNumber": 5,
  "ShimSetting": [-4511, -19512, -9824, 1093, 19, -503, 251, 76],
  "SliceThickness": 4,
  "SliceTiming": [0, 1.0325, 0.06, 1.095, 0.12, 1.155, 0.1825, 1.215, 0.2425, 1.2775, 0.3025, 1.3375, 0.365, 1.3975, 0.425, 1.46, 0.485, 1.52, 0.5475, 1.58, 0.6075, 1.6425, 0.6675, 1.7025, 0.73, 1.7625, 0.79, 1.825, 0.85, 1.885, 0.9125, 1.945, 0.9725],
  "SoftwareVersions": "syngo MR B17",
  "SpacingBetweenSlices": 4.6,
  "StationName": "MRC35193",
  "TaskName": "CognitiveControl",
  "TotalReadoutTime": 0.0289803,
  "TxRefAmp": 323.362,
  "dcmmeta_affine": [
    [-3.125, 0.0, 0.0, 103.37349700927734],
    [0.0, 3.125, 0.0, -90.8027114868164],
    [0.0, 0.0, 4.599999904632568, -47.96144485473633],
    [0.0, 0.0, 0.0, 1.0]
],
  "dcmmeta_reorient_transform": [
    [0.0, -1.0, 0.0, 63.0],
    [1.0, 0.0, 0.0, 0.0],
    [0.0, 0.0, 1.0, 0.0],
    [0.0, 0.0, 0.0, 1.0]
],
  "dcmmeta_shape": [64, 64, 33, 164],
  "dcmmeta_slice_dim": 2,
  "dcmmeta_version": 0.6,
  "global": {
    "const": {
      "AcquisitionMatrix": [64, 0, 0, 64],
      "AngioFlag": "N",
      "BitsAllocated": 16,
      "BitsStored": 12,
      "Columns": 384,
      "EchoNumbers": 1,
      "EchoTime": 30.0,
      "EchoTrainLength": 1,
      "FlipAngle": 90.0,
      "HighBit": 11,
      "ImageOrientationPatient": [1.0, 0.0, 0.0, 0.0, 1.0, 0.0],
      "ImagePositionPatient": [-603.37349390984, -606.07228899002, -47.961444854736],
      "ImageType": [
        "ORIGINAL",
        "PRIMARY",
        "M",
        "ND",
        "MOSAIC"
],
      "ImagedNucleus": "1H",
      "ImagingFrequency": 123.253713,
      "InPlanePhaseEncodingDirection": "COL",
      "MRAcquisitionType": "2D",
      "MagneticFieldStrength": 3.0,
      "Manufacturer": "SIEMENS",
      "ManufacturerModelName": "TrioTim",
      "Modality": "MR",
      "NumberOfAverages": 1.0,
      "NumberOfPhaseEncodingSteps": 64,
      "PercentPhaseFieldOfView": 100.0,
      "PercentSampling": 100.0,
      "PerformedProcedureStepStartTime": "160624.156000",
      "PhotometricInterpretation": "MONOCHROME2",
      "PixelBandwidth": 2520.0,
      "PixelRepresentation": 0,
      "PixelSpacing": [3.125, 3.125],
      "ProtocolName": "ge_func_3x3x4_164",
      "RepetitionTime": 2000.0,
      "Rows": 384,
      "SAR": 0.16880794895011,
      "SamplesPerPixel": 1,
      "ScanOptions": "FS",
      "ScanningSequence": "EP",
      "SequenceName": "*epfid2d1_64",
      "SequenceVariant": "SK",
      "SeriesDescription": "ge_func_3x3x4_164",
      "SeriesNumber": 5,
      "SeriesTime": "162908.687000",
      "SliceLocation": -47.961444854736,
      "SliceThickness": 4.0,
      "SmallestImagePixelValue": 0,
      "SoftwareVersions": "syngo MR B17",
      "SpacingBetweenSlices": 4.6000000238419,
      "SpecificCharacterSet": "ISO_IR 100",
      "StudyID": "1",
      "StudyTime": "160624.078000",
      "TransmitCoilName": "Body",
      "VariableFlipAngleFlag": "N",
      "WindowCenterWidthExplanation": "Algo1",
      "dBdt": 0.0},
    "slices": {}
  },
  "time": {
    "samples": {
      "AcquisitionNumber": [1, 2, 3, 4, 5, 6, 7, 8, 9, 10, 11, 12, 13, 14, 15, 16, 17, 18, 19, 20, 21, 22, 23, 24, 25, 26, 27, 28, 29, 30, 31, 32, 33, 34, 35, 36, 37, 38, 39, 40, 41, 42, 43, 44, 45, 46, 47, 48, 49, 50, 51, 52, 53, 54, 55, 56, 57, 58, 59, 60, 61, 62, 63, 64, 65, 66, 67, 68, 69, 70, 71, 72, 73, 74, 75, 76, 77, 78, 79, 80, 81, 82, 83, 84, 85, 86, 87, 88, 89, 90, 91, 92, 93, 94, 95, 96, 97, 98, 99, 100, 101, 102, 103, 104, 105, 106, 107, 108, 109, 110, 111, 112, 113, 114, 115, 116, 117, 118, 119, 120, 121, 122, 123, 124, 125, 126, 127, 128, 129, 130, 131, 132, 133, 134, 135, 136, 137, 138, 139, 140, 141, 142, 143, 144, 145, 146, 147, 148, 149, 150, 151, 152, 153, 154, 155, 156, 157, 158, 159, 160, 161, 162, 163, 164],
      "AcquisitionTime": ["162818.870000", "162820.877500", "162822.885000", "162824.892500", "162826.902500", "162828.910000", "162830.917500", "162832.925000", "162834.932500", "162836.942500", "162838.950000", "162840.957500", "162842.965000", "162844.975000", "162846.982500", "162848.990000", "162850.997500", "162853.005000", "162855.015000", "162857.022500", "162859.030000", "162901.037500", "162903.045000", "162905.055000", "162907.062500", "162909.070000", "162911.077500", "162913.085000", "162915.095000", "162917.102500", "162919.110000", "162921.117500", "162923.127500", "162925.135000", "162927.142500", "162929.150000", "162931.157500", "162933.167500", "162935.175000", "162937.182500", "162939.190000", "162941.197500", "162943.207500", "162945.215000", "162947.222500", "162949.230000", "162951.240000", "162953.247500", "162955.255000", "162957.262500", "162959.270000", "163001.280000", "163003.287500", "163005.295000", "163007.302500", "163009.310000", "163011.320000", "163013.327500", "163015.335000", "163017.342500", "163019.352500", "163021.360000", "163023.367500", "163025.375000", "163027.382500", "163029.392500", "163031.400000", "163033.407500", "163035.415000", "163037.422500", "163039.432500", "163041.440000", "163043.447500", "163045.455000", "163047.465000", "163049.472500", "163051.480000", "163053.487500", "163055.495000", "163057.505000", "163059.512500", "163101.520000", "163103.527500", "163105.535000", "163107.545000", "163109.552500", "163111.560000", "163113.567500", "163115.575000", "163117.585000", "163119.592500", "163121.600000", "163123.607500", "163125.617500", "163127.625000", "163129.632500", "163131.640000", "163133.647500", "163135.657500", "163137.665000", "163139.672500", "163141.680000", "163143.687500", "163145.697500", "163147.705000", "163149.712500", "163151.720000", "163153.730000", "163155.737500", "163157.745000", "163159.752500", "163201.760000", "163203.770000", "163205.777500", "163207.785000", "163209.792500", "163211.800000", "163213.810000", "163215.817500", "163217.825000", "163219.832500", "163221.842500", "163223.850000", "163225.857500", "163227.865000", "163229.872500", "163231.882500", "163233.890000", "163235.897500", "163237.905000", "163239.912500", "163241.922500", "163243.930000", "163245.937500", "163247.945000", "163249.952500", "163251.962500", "163253.970000", "163255.977500", "163257.985000", "163259.995000", "163302.002500", "163304.010000", "163306.017500", "163308.025000", "163310.035000", "163312.042500", "163314.050000", "163316.057500", "163318.065000", "163320.075000", "163322.082500", "163324.090000", "163326.097500", "163328.107500", "163330.115000", "163332.122500", "163334.130000", "163336.137500", "163338.147500", "163340.155000", "163342.162500", "163344.170000", "163346.177500"],
      "ContentTime": ["162908.687000", "162908.687000", "162908.703000", "162908.703000", "162908.703000", "162908.703000", "162908.703000", "162908.703000", "162908.703000", "162908.703000", "162908.718000", "162908.718000", "162908.718000", "162908.718000", "162908.718000", "162908.718000", "162908.718000", "162908.718000", "162908.718000", "162908.734000", "162908.734000", "162908.734000", "162908.734000", "162908.750000", "162948.687000", "162948.687000", "162948.687000", "162948.687000", "162948.703000", "162948.703000", "162948.703000", "162948.718000", "162948.718000", "162948.718000", "162948.718000", "162948.718000", "162948.734000", "162948.734000", "162948.734000", "162948.734000", "162948.734000", "162948.734000", "162948.734000", "162948.734000", "163028.687000", "163028.687000", "163028.687000", "163028.687000", "163028.687000", "163028.703000", "163028.703000", "163028.703000", "163028.703000", "163028.703000", "163028.718000", "163028.718000", "163028.718000", "163028.718000", "163028.718000", "163028.718000", "163028.718000", "163028.718000", "163028.734000", "163028.734000", "163108.687000", "163108.687000", "163108.687000", "163108.687000", "163108.687000", "163108.687000", "163108.703000", "163108.703000", "163108.703000", "163108.703000", "163108.718000", "163108.718000", "163108.718000", "163108.718000", "163108.718000", "163108.718000", "163108.734000", "163108.734000", "163108.734000", "163108.734000", "163148.687000", "163148.687000", "163148.687000", "163148.687000", "163148.703000", "163148.703000", "163148.703000", "163148.703000", "163148.703000", "163148.703000", "163148.718000", "163148.718000", "163148.718000", "163148.718000", "163148.718000", "163148.734000", "163148.734000", "163148.734000", "163148.734000", "163148.734000", "163228.687000", "163228.687000", "163228.687000", "163228.687000", "163228.687000", "163228.687000", "163228.703000", "163228.703000", "163228.703000", "163228.703000", "163228.703000", "163228.703000", "163228.703000", "163228.703000", "163228.718000", "163228.718000", "163228.718000", "163228.718000", "163228.718000", "163228.718000", "163308.687000", "163308.687000", "163308.687000", "163308.703000", "163308.703000", "163308.703000", "163308.703000", "163308.703000", "163308.718000", "163308.718000", "163308.718000", "163308.718000", "163308.718000", "163308.734000", "163308.734000", "163308.734000", "163308.734000", "163308.734000", "163308.734000", "163308.734000", "163347.468000", "163347.468000", "163347.468000", "163347.468000", "163347.468000", "163347.468000", "163347.468000", "163347.484000", "163347.484000", "163347.484000", "163347.484000", "163347.484000", "163347.484000", "163347.484000", "163347.484000", "163347.500000", "163347.500000", "163347.500000", "163347.500000", "163347.500000"],
      "InstanceCreationTime": ["162908.687000", "162908.687000", "162908.703000", "162908.703000", "162908.703000", "162908.703000", "162908.703000", "162908.703000", "162908.703000", "162908.703000", "162908.718000", "162908.718000", "162908.718000", "162908.718000", "162908.718000", "162908.718000", "162908.718000", "162908.718000", "162908.718000", "162908.734000", "162908.734000", "162908.734000", "162908.734000", "162908.750000", "162948.687000", "162948.687000", "162948.687000", "162948.687000", "162948.703000", "162948.703000", "162948.703000", "162948.718000", "162948.718000", "162948.718000", "162948.718000", "162948.718000", "162948.734000", "162948.734000", "162948.734000", "162948.734000", "162948.734000", "162948.734000", "162948.734000", "162948.734000", "163028.687000", "163028.687000", "163028.687000", "163028.687000", "163028.687000", "163028.703000", "163028.703000", "163028.703000", "163028.703000", "163028.703000", "163028.718000", "163028.718000", "163028.718000", "163028.718000", "163028.718000", "163028.718000", "163028.718000", "163028.718000", "163028.734000", "163028.734000", "163108.687000", "163108.687000", "163108.687000", "163108.687000", "163108.687000", "163108.687000", "163108.703000", "163108.703000", "163108.703000", "163108.703000", "163108.718000", "163108.718000", "163108.718000", "163108.718000", "163108.718000", "163108.718000", "163108.734000", "163108.734000", "163108.734000", "163108.734000", "163148.687000", "163148.687000", "163148.687000", "163148.687000", "163148.703000", "163148.703000", "163148.703000", "163148.703000", "163148.703000", "163148.703000", "163148.718000", "163148.718000", "163148.718000", "163148.718000", "163148.718000", "163148.734000", "163148.734000", "163148.734000", "163148.734000", "163148.734000", "163228.687000", "163228.687000", "163228.687000", "163228.687000", "163228.687000", "163228.687000", "163228.703000", "163228.703000", "163228.703000", "163228.703000", "163228.703000", "163228.703000", "163228.703000", "163228.703000", "163228.718000", "163228.718000", "163228.718000", "163228.718000", "163228.718000", "163228.718000", "163308.687000", "163308.687000", "163308.687000", "163308.703000", "163308.703000", "163308.703000", "163308.703000", "163308.703000", "163308.718000", "163308.718000", "163308.718000", "163308.718000", "163308.718000", "163308.734000", "163308.734000", "163308.734000", "163308.734000", "163308.734000", "163308.734000", "163308.734000", "163347.468000", "163347.468000", "163347.468000", "163347.468000", "163347.468000", "163347.468000", "163347.468000", "163347.484000", "163347.484000", "163347.484000", "163347.484000", "163347.484000", "163347.484000", "163347.484000", "163347.484000", "163347.500000", "163347.500000", "163347.500000", "163347.500000", "163347.500000"],
      "InstanceNumber": [1, 2, 3, 4, 5, 6, 7, 8, 9, 10, 11, 12, 13, 14, 15, 16, 17, 18, 19, 20, 21, 22, 23, 24, 25, 26, 27, 28, 29, 30, 31, 32, 33, 34, 35, 36, 37, 38, 39, 40, 41, 42, 43, 44, 45, 46, 47, 48, 49, 50, 51, 52, 53, 54, 55, 56, 57, 58, 59, 60, 61, 62, 63, 64, 65, 66, 67, 68, 69, 70, 71, 72, 73, 74, 75, 76, 77, 78, 79, 80, 81, 82, 83, 84, 85, 86, 87, 88, 89, 90, 91, 92, 93, 94, 95, 96, 97, 98, 99, 100, 101, 102, 103, 104, 105, 106, 107, 108, 109, 110, 111, 112, 113, 114, 115, 116, 117, 118, 119, 120, 121, 122, 123, 124, 125, 126, 127, 128, 129, 130, 131, 132, 133, 134, 135, 136, 137, 138, 139, 140, 141, 142, 143, 144, 145, 146, 147, 148, 149, 150, 151, 152, 153, 154, 155, 156, 157, 158, 159, 160, 161, 162, 163, 164],
      "LargestImagePixelValue": [1556, 1489, 1498, 1483, 1467, 1481, 1477, 1469, 1452, 1464, 1475, 1468, 1483, 1466, 1467, 1465, 1479, 1478, 1483, 1462, 1489, 1462, 1471, 1484, 1470, 1490, 1475, 1470, 1478, 1472, 1478, 1466, 1474, 1474, 1476, 1477, 1475, 1477, 1475, 1466, 1480, 1469, 1476, 1474, 1464, 1499, 1478, 1462, 1470, 1467, 1471, 1463, 1483, 1475, 1474, 1466, 1477, 1511, 1481, 1483, 1472, 1470, 1484, 1470, 1484, 1479, 1469, 1478, 1469, 1485, 1468, 1472, 1469, 1484, 1470, 1481, 1488, 1481, 1480, 1478, 1472, 1465, 1482, 1482, 1475, 1480, 1480, 1480, 1478, 1477, 1462, 1482, 1494, 1484, 1477, 1480, 1481, 1466, 1476, 1475, 1482, 1474, 1480, 1478, 1490, 1476, 1471, 1473, 1484, 1472, 1486, 1483, 1473, 1460, 1481, 1465, 1479, 1469, 1458, 1487, 1485, 1482, 1464, 1476, 1481, 1476, 1476, 1484, 1482, 1476, 1456, 1462, 1479, 1473, 1464, 1485, 1476, 1489, 1480, 1476, 1483, 1490, 1484, 1482, 1481, 1479, 1466, 1553, 1474, 1485, 1455, 1478, 1460, 1482, 1473, 1467, 1474, 1468, 1460, 1473, 1473, 1453, 1481, 1482],
      "WindowCenter": [691.0, 690.0, 691.0, 691.0, 690.0, 690.0, 690.0, 689.0, 688.0, 688.0, 688.0, 688.0, 688.0, 688.0, 688.0, 688.0, 688.0, 688.0, 688.0, 688.0, 688.0, 689.0, 690.0, 689.0, 688.0, 689.0, 689.0, 689.0, 689.0, 689.0, 689.0, 689.0, 689.0, 689.0, 689.0, 688.0, 689.0, 689.0, 689.0, 689.0, 689.0, 689.0, 689.0, 688.0, 688.0, 688.0, 688.0, 688.0, 689.0, 689.0, 689.0, 689.0, 689.0, 690.0, 691.0, 692.0, 691.0, 690.0, 689.0, 689.0, 689.0, 689.0, 689.0, 690.0, 690.0, 689.0, 689.0, 689.0, 689.0, 689.0, 689.0, 689.0, 689.0, 690.0, 690.0, 690.0, 690.0, 690.0, 689.0, 689.0, 688.0, 689.0, 689.0, 688.0, 689.0, 689.0, 689.0, 689.0, 690.0, 691.0, 691.0, 690.0, 689.0, 689.0, 689.0, 689.0, 689.0, 689.0, 689.0, 690.0, 690.0, 690.0, 688.0, 688.0, 689.0, 689.0, 690.0, 690.0, 689.0, 690.0, 691.0, 691.0, 690.0, 690.0, 690.0, 690.0, 690.0, 689.0, 689.0, 689.0, 689.0, 689.0, 689.0, 690.0, 690.0, 690.0, 690.0, 690.0, 691.0, 690.0, 690.0, 689.0, 689.0, 690.0, 690.0, 690.0, 690.0, 690.0, 690.0, 690.0, 690.0, 690.0, 689.0, 689.0, 690.0, 692.0, 691.0, 691.0, 689.0, 690.0, 690.0, 690.0, 690.0, 690.0, 691.0, 691.0, 691.0, 691.0, 691.0, 691.0, 691.0, 690.0, 690.0, 689.0],
      "WindowWidth": [1488.0, 1485.0, 1488.0, 1487.0, 1484.0, 1484.0, 1484.0, 1481.0, 1480.0, 1480.0, 1479.0, 1479.0, 1479.0, 1479.0, 1479.0, 1478.0, 1479.0, 1479.0, 1479.0, 1479.0, 1480.0, 1483.0, 1484.0, 1483.0, 1481.0, 1481.0, 1483.0, 1482.0, 1482.0, 1482.0, 1482.0, 1481.0, 1481.0, 1482.0, 1482.0, 1481.0, 1481.0, 1483.0, 1483.0, 1482.0, 1481.0, 1482.0, 1482.0, 1481.0, 1479.0, 1480.0, 1480.0, 1481.0, 1483.0, 1484.0, 1483.0, 1483.0, 1482.0, 1484.0, 1488.0, 1491.0, 1488.0, 1485.0, 1482.0, 1482.0, 1483.0, 1483.0, 1483.0, 1485.0, 1485.0, 1483.0, 1481.0, 1482.0, 1482.0, 1483.0, 1482.0, 1482.0, 1482.0, 1484.0, 1486.0, 1486.0, 1485.0, 1485.0, 1483.0, 1482.0, 1481.0, 1481.0, 1481.0, 1481.0, 1482.0, 1482.0, 1483.0, 1484.0, 1486.0, 1488.0, 1487.0, 1485.0, 1483.0, 1481.0, 1481.0, 1482.0, 1483.0, 1483.0, 1484.0, 1486.0, 1485.0, 1484.0, 1481.0, 1481.0, 1482.0, 1483.0, 1484.0, 1484.0, 1483.0, 1486.0, 1488.0, 1486.0, 1484.0, 1484.0, 1486.0, 1485.0, 1485.0, 1484.0, 1482.0, 1481.0, 1482.0, 1483.0, 1483.0, 1484.0, 1485.0, 1485.0, 1485.0, 1485.0, 1487.0, 1486.0, 1484.0, 1482.0, 1482.0, 1484.0, 1484.0, 1484.0, 1484.0, 1485.0, 1485.0, 1484.0, 1484.0, 1484.0, 1483.0, 1483.0, 1486.0, 1489.0, 1487.0, 1486.0, 1483.0, 1484.0, 1484.0, 1484.0, 1484.0, 1486.0, 1487.0, 1488.0, 1488.0, 1488.0, 1487.0, 1486.0, 1486.0, 1485.0, 1484.0, 1483.0]
    },
    "slices": {}
  }
}