{
  "AcquisitionMatrixPE": 64,
  "AcquisitionNumber": 1,
  "AcquisitionTime": "10:30:49.325000",
  "BandwidthPerPixelPhaseEncode": 33.967,
  "BaseResolution": 64,
  "CoilCombinationMethod": "Sum of Squares",
  "CoilString": "C:HEA;HEP",
  "ConversionSoftware": "dcm2niix",
  "ConversionSoftwareVersion": "v1.0.20220720",
  "DerivedVendorReportedEchoSpacing": 0.000460005,
  "DeviceSerialNumber": "35193",
  "DwellTime": 3.1e-06,
  "EchoTime": 0.03,
  "EffectiveEchoSpacing": 0.000460005,
  "FlipAngle": 90,
  "HeudiconvVersion": "1.1.6",
  "ImageOrientationPatientDICOM": [0.999391, -2e-16, 0.0348995, 2e-16, 1, 0],
  "ImageOrientationText": "Tra>Sag(2.0)",
  "ImageType": [
    "ORIGINAL",
    "PRIMARY",
    "M",
    "ND",
    "MOSAIC"
],
  "ImagingFrequency": 123.254,
  "InPlanePhaseEncodingDirectionDICOM": "COL",
  "InstitutionAddress": "Xinjiekouwai Street No 19,Beijing,Haidian District,CN,100875",
  "InstitutionName": "Beijing Normal Universtiy/577BC4/",
  "InstitutionalDepartmentName": "Department",
  "MRAcquisitionType": "2D",
  "MagneticFieldStrength": 3,
  "Manufacturer": "Siemens",
  "ManufacturersModelName": "TrioTim",
  "MatrixCoilMode": "SENSE",
  "Modality": "MR",
  "NonlinearGradientCorrection": false,
  "PartialFourier": 1,
  "PatientPosition": "HFS",
  "PercentPhaseFOV": 100,
  "PercentSampling": 100,
  "PhaseEncodingDirection": "j-",
  "PhaseEncodingSteps": 64,
  "PhaseResolution": 1,
  "PixelBandwidth": 2520,
  "ProcedureStepDescription": "BNU_cst_2015^Guo.TaoMei",
  "ProtocolName": "ge_func_3x3x4_164",
  "PulseSequenceDetails": "%SiemensSeq%\\ep2d_bold",
  "ReceiveCoilName": "HeadMatrix",
  "ReconMatrixPE": 64,
  "RepetitionTime": 2,
  "SAR": 0.112786,
  "ScanOptions": "FS",
  "ScanningSequence": "EP",
  "SequenceName": "*epfid2d1_64",
  "SequenceVariant": "SK",
  "SeriesDescription": "ge_func_3x3x4_164",
  "SeriesNumber": 4,
  "ShimSetting": [-4477, -19344, -9800, 1043, -71, -125, 225, -84],
  "SliceThickness": 4,
  "SliceTiming": [0, 1.035, 0.06, 1.095, 0.1225, 1.155, 0.1825, 1.2175, 0.2425, 1.2775, 0.305, 1.3375, 0.365, 1.4, 0.425, 1.46, 0.4875, 1.52, 0.5475, 1.5825, 0.6075, 1.6425, 0.67, 1.7025, 0.73, 1.765, 0.79, 1.825, 0.8525, 1.885, 0.9125, 1.9475, 0.9725],
  "SoftwareVersions": "syngo MR B17",
  "SpacingBetweenSlices": 4.6,
  "StationName": "MRC35193",
  "TaskName": "LanguageControl",
  "TotalReadoutTime": 0.0289803,
  "TxRefAmp": 363.896,
  "dcmmeta_affine": [
    [-3.123096227645874, 6.249999890322938e-16, 0.1605376899242401, 101.41867065429688],
    [6.249999890322938e-16, 3.125, -3.21075382543929e-17, -90.8027114868164],
    [0.10906093567609787, 0.0, 4.597198009490967, -89.189697265625],
    [0.0, 0.0, 0.0, 1.0]
],
  "dcmmeta_reorient_transform": [
    [0.0, -1.0, 0.0, 63.0],
    [1.0, 0.0, 0.0, 0.0],
    [0.0, 0.0, 1.0, 0.0],
    [0.0, 0.0, 0.0, 1.0]
],
  "dcmmeta_shape": [64, 64, 33, 164],
  "dcmmeta_slice_dim": 2,
  "dcmmeta_version": 0.6,
  "global": {
    "const": {
      "AcquisitionMatrix": [64, 0, 0, 64],
      "AngioFlag": "N",
      "BitsAllocated": 16,
      "BitsStored": 12,
      "Columns": 384,
      "EchoNumbers": 1,
      "EchoTime": 30.0,
      "EchoTrainLength": 1,
      "FlipAngle": 90.0,
      "HighBit": 11,
      "ImageOrientationPatient": [0.99939082696012, -2e-16, 0.03489949839139, 2e-16, 1.0, 0.0],
      "ImagePositionPatient": [-601.11408599598, -606.07228899002, -106.63944421306],
      "ImageType": [
        "ORIGINAL",
        "PRIMARY",
        "M",
        "ND",
        "MOSAIC"
],
      "ImagedNucleus": "1H",
      "ImagingFrequency": 123.253684,
      "InPlanePhaseEncodingDirection": "COL",
      "MRAcquisitionType": "2D",
      "MagneticFieldStrength": 3.0,
      "Manufacturer": "SIEMENS",
      "ManufacturerModelName": "TrioTim",
      "Modality": "MR",
      "NumberOfAverages": 1.0,
      "NumberOfPhaseEncodingSteps": 64,
      "PercentPhaseFieldOfView": 100.0,
      "PercentSampling": 100.0,
      "PerformedProcedureStepStartTime": "101232.453000",
      "PhotometricInterpretation": "MONOCHROME2",
      "PixelBandwidth": 2520.0,
      "PixelRepresentation": 0,
      "PixelSpacing": [3.125, 3.125],
      "ProtocolName": "ge_func_3x3x4_164",
      "RepetitionTime": 2000.0,
      "Rows": 384,
      "SAR": 0.11278637733611,
      "SamplesPerPixel": 1,
      "ScanOptions": "FS",
      "ScanningSequence": "EP",
      "SequenceName": "*epfid2d1_64",
      "SequenceVariant": "SK",
      "SeriesDescription": "ge_func_3x3x4_164",
      "SeriesNumber": 4,
      "SeriesTime": "103140.218000",
      "SliceLocation": -85.595902261396,
      "SliceThickness": 4.0,
      "SmallestImagePixelValue": 0,
      "SoftwareVersions": "syngo MR B17",
      "SpacingBetweenSlices": 4.6000000857292,
      "SpecificCharacterSet": "ISO_IR 100",
      "StudyID": "1",
      "StudyTime": "101231.640000",
      "TransmitCoilName": "Body",
      "VariableFlipAngleFlag": "N",
      "WindowCenterWidthExplanation": "Algo1",
      "dBdt": 0.0},
    "slices": {}
  },
  "time": {
    "samples": {
      "AcquisitionNumber": [1, 2, 3, 4, 5, 6, 7, 8, 9, 10, 11, 12, 13, 14, 15, 16, 17, 18, 19, 20, 21, 22, 23, 24, 25, 26, 27, 28, 29, 30, 31, 32, 33, 34, 35, 36, 37, 38, 39, 40, 41, 42, 43, 44, 45, 46, 47, 48, 49, 50, 51, 52, 53, 54, 55, 56, 57, 58, 59, 60, 61, 62, 63, 64, 65, 66, 67, 68, 69, 70, 71, 72, 73, 74, 75, 76, 77, 78, 79, 80, 81, 82, 83, 84, 85, 86, 87, 88, 89, 90, 91, 92, 93, 94, 95, 96, 97, 98, 99, 100, 101, 102, 103, 104, 105, 106, 107, 108, 109, 110, 111, 112, 113, 114, 115, 116, 117, 118, 119, 120, 121, 122, 123, 124, 125, 126, 127, 128, 129, 130, 131, 132, 133, 134, 135, 136, 137, 138, 139, 140, 141, 142, 143, 144, 145, 146, 147, 148, 149, 150, 151, 152, 153, 154, 155, 156, 157, 158, 159, 160, 161, 162, 163, 164],
      "AcquisitionTime": ["103049.325000", "103051.332500", "103053.340000", "103055.350000", "103057.357500", "103059.365000", "103101.372500", "103103.382500", "103105.390000", "103107.397500", "103109.405000", "103111.412500", "103113.422500", "103115.430000", "103117.437500", "103119.445000", "103121.452500", "103123.462500", "103125.470000", "103127.477500", "103129.485000", "103131.495000", "103133.502500", "103135.510000", "103137.517500", "103139.525000", "103141.535000", "103143.542500", "103145.550000", "103147.557500", "103149.565000", "103151.575000", "103153.582500", "103155.590000", "103157.597500", "103159.605000", "103201.615000", "103203.622500", "103205.630000", "103207.637500", "103209.647500", "103211.655000", "103213.662500", "103215.670000", "103217.677500", "103219.687500", "103221.695000", "103223.702500", "103225.710000", "103227.717500", "103229.727500", "103231.735000", "103233.742500", "103235.750000", "103237.760000", "103239.767500", "103241.775000", "103243.782500", "103245.790000", "103247.800000", "103249.807500", "103251.815000", "103253.822500", "103255.830000", "103257.840000", "103259.847500", "103301.855000", "103303.862500", "103305.872500", "103307.880000", "103309.887500", "103311.895000", "103313.902500", "103315.912500", "103317.920000", "103319.927500", "103321.935000", "103323.942500", "103325.952500", "103327.960000", "103329.967500", "103331.975000", "103333.982500", "103335.992500", "103338.000000", "103340.007500", "103342.015000", "103344.025000", "103346.032500", "103348.040000", "103350.047500", "103352.055000", "103354.065000", "103356.072500", "103358.080000", "103400.087500", "103402.095000", "103404.105000", "103406.112500", "103408.120000", "103410.127500", "103412.137500", "103414.145000", "103416.152500", "103418.160000", "103420.167500", "103422.177500", "103424.185000", "103426.192500", "103428.200000", "103430.207500", "103432.217500", "103434.225000", "103436.232500", "103438.240000", "103440.250000", "103442.257500", "103444.265000", "103446.272500", "103448.280000", "103450.290000", "103452.297500", "103454.305000", "103456.312500", "103458.320000", "103500.330000", "103502.337500", "103504.345000", "103506.352500", "103508.360000", "103510.370000", "103512.377500", "103514.385000", "103516.392500", "103518.402500", "103520.410000", "103522.417500", "103524.425000", "103526.432500", "103528.442500", "103530.450000", "103532.457500", "103534.465000", "103536.472500", "103538.482500", "103540.490000", "103542.497500", "103544.505000", "103546.515000", "103548.522500", "103550.530000", "103552.537500", "103554.545000", "103556.555000", "103558.562500", "103600.570000", "103602.577500", "103604.585000", "103606.595000", "103608.602500", "103610.610000", "103612.617500", "103614.627500", "103616.635000"],
      "ContentTime": ["103140.218000", "103140.234000", "103140.234000", "103140.234000", "103140.234000", "103140.250000", "103140.250000", "103140.250000", "103140.250000", "103140.250000", "103140.250000", "103140.265000", "103140.265000", "103140.265000", "103140.265000", "103140.265000", "103140.281000", "103140.281000", "103140.281000", "103140.281000", "103140.281000", "103140.296000", "103140.296000", "103140.296000", "103140.296000", "103220.218000", "103220.218000", "103220.218000", "103220.218000", "103220.234000", "103220.234000", "103220.234000", "103220.234000", "103220.234000", "103220.250000", "103220.250000", "103220.250000", "103220.250000", "103220.250000", "103220.250000", "103220.250000", "103220.250000", "103220.265000", "103220.265000", "103220.265000", "103300.218000", "103300.218000", "103300.218000", "103300.218000", "103300.218000", "103300.234000", "103300.234000", "103300.234000", "103300.234000", "103300.234000", "103300.234000", "103300.234000", "103300.234000", "103300.250000", "103300.250000", "103300.250000", "103300.250000", "103300.250000", "103300.250000", "103300.265000", "103340.218000", "103340.218000", "103340.218000", "103340.234000", "103340.234000", "103340.234000", "103340.234000", "103340.234000", "103340.234000", "103340.234000", "103340.250000", "103340.250000", "103340.265000", "103340.265000", "103340.265000", "103340.265000", "103340.265000", "103340.265000", "103340.265000", "103340.265000", "103420.218000", "103420.218000", "103420.234000", "103420.234000", "103420.234000", "103420.234000", "103420.234000", "103420.234000", "103420.234000", "103420.234000", "103420.250000", "103420.250000", "103420.250000", "103420.250000", "103420.250000", "103420.250000", "103420.250000", "103420.250000", "103420.265000", "103420.265000", "103500.218000", "103500.218000", "103500.218000", "103500.218000", "103500.218000", "103500.234000", "103500.234000", "103500.234000", "103500.234000", "103500.234000", "103500.234000", "103500.234000", "103500.234000", "103500.250000", "103500.250000", "103500.250000", "103500.250000", "103500.250000", "103500.250000", "103500.250000", "103540.218000", "103540.218000", "103540.218000", "103540.218000", "103540.218000", "103540.234000", "103540.234000", "103540.234000", "103540.234000", "103540.250000", "103540.250000", "103540.250000", "103540.250000", "103540.250000", "103540.265000", "103540.265000", "103540.265000", "103540.265000", "103540.265000", "103540.265000", "103600.218000", "103600.234000", "103600.234000", "103600.234000", "103600.234000", "103600.234000", "103600.250000", "103600.250000", "103600.250000", "103600.250000", "103618.031000", "103618.031000", "103618.031000", "103618.031000", "103618.046000", "103618.046000", "103618.046000", "103618.046000", "103618.046000"],
      "InstanceCreationTime": ["103140.218000", "103140.234000", "103140.234000", "103140.234000", "103140.234000", "103140.250000", "103140.250000", "103140.250000", "103140.250000", "103140.250000", "103140.250000", "103140.265000", "103140.265000", "103140.265000", "103140.265000", "103140.265000", "103140.281000", "103140.281000", "103140.281000", "103140.281000", "103140.281000", "103140.296000", "103140.296000", "103140.296000", "103140.296000", "103220.218000", "103220.218000", "103220.218000", "103220.218000", "103220.234000", "103220.234000", "103220.234000", "103220.234000", "103220.234000", "103220.250000", "103220.250000", "103220.250000", "103220.250000", "103220.250000", "103220.250000", "103220.250000", "103220.250000", "103220.265000", "103220.265000", "103220.265000", "103300.218000", "103300.218000", "103300.218000", "103300.218000", "103300.218000", "103300.234000", "103300.234000", "103300.234000", "103300.234000", "103300.234000", "103300.234000", "103300.234000", "103300.234000", "103300.250000", "103300.250000", "103300.250000", "103300.250000", "103300.250000", "103300.250000", "103300.265000", "103340.218000", "103340.218000", "103340.218000", "103340.234000", "103340.234000", "103340.234000", "103340.234000", "103340.234000", "103340.234000", "103340.234000", "103340.250000", "103340.250000", "103340.265000", "103340.265000", "103340.265000", "103340.265000", "103340.265000", "103340.265000", "103340.265000", "103340.265000", "103420.218000", "103420.218000", "103420.234000", "103420.234000", "103420.234000", "103420.234000", "103420.234000", "103420.234000", "103420.234000", "103420.234000", "103420.250000", "103420.250000", "103420.250000", "103420.250000", "103420.250000", "103420.250000", "103420.250000", "103420.250000", "103420.265000", "103420.265000", "103500.218000", "103500.218000", "103500.218000", "103500.218000", "103500.218000", "103500.234000", "103500.234000", "103500.234000", "103500.234000", "103500.234000", "103500.234000", "103500.234000", "103500.234000", "103500.250000", "103500.250000", "103500.250000", "103500.250000", "103500.250000", "103500.250000", "103500.250000", "103540.218000", "103540.218000", "103540.218000", "103540.218000", "103540.218000", "103540.234000", "103540.234000", "103540.234000", "103540.234000", "103540.250000", "103540.250000", "103540.250000", "103540.250000", "103540.250000", "103540.265000", "103540.265000", "103540.265000", "103540.265000", "103540.265000", "103540.265000", "103600.218000", "103600.234000", "103600.234000", "103600.234000", "103600.234000", "103600.234000", "103600.250000", "103600.250000", "103600.250000", "103600.250000", "103618.031000", "103618.031000", "103618.031000", "103618.031000", "103618.046000", "103618.046000", "103618.046000", "103618.046000", "103618.046000"],
      "InstanceNumber": [1, 2, 3, 4, 5, 6, 7, 8, 9, 10, 11, 12, 13, 14, 15, 16, 17, 18, 19, 20, 21, 22, 23, 24, 25, 26, 27, 28, 29, 30, 31, 32, 33, 34, 35, 36, 37, 38, 39, 40, 41, 42, 43, 44, 45, 46, 47, 48, 49, 50, 51, 52, 53, 54, 55, 56, 57, 58, 59, 60, 61, 62, 63, 64, 65, 66, 67, 68, 69, 70, 71, 72, 73, 74, 75, 76, 77, 78, 79, 80, 81, 82, 83, 84, 85, 86, 87, 88, 89, 90, 91, 92, 93, 94, 95, 96, 97, 98, 99, 100, 101, 102, 103, 104, 105, 106, 107, 108, 109, 110, 111, 112, 113, 114, 115, 116, 117, 118, 119, 120, 121, 122, 123, 124, 125, 126, 127, 128, 129, 130, 131, 132, 133, 134, 135, 136, 137, 138, 139, 140, 141, 142, 143, 144, 145, 146, 147, 148, 149, 150, 151, 152, 153, 154, 155, 156, 157, 158, 159, 160, 161, 162, 163, 164],
      "LargestImagePixelValue": [1989, 1943, 1896, 1890, 1904, 1894, 1903, 1907, 1881, 1910, 1895, 1912, 1929, 1915, 1902, 1911, 1911, 1911, 1895, 1911, 1935, 1903, 1913, 1889, 1904, 1914, 1890, 1910, 1894, 1913, 1914, 1914, 1897, 1916, 1920, 1903, 1912, 1920, 1923, 1917, 1933, 1914, 1929, 1928, 1936, 1917, 1919, 1942, 1921, 1925, 1930, 1918, 1911, 1921, 1933, 1931, 1931, 1922, 1919, 1928, 1926, 1961, 1923, 1936, 1933, 1935, 1914, 1938, 1939, 1937, 1939, 1937, 1916, 1929, 1949, 1942, 1930, 1946, 1951, 1918, 1914, 1939, 1955, 1939, 1936, 1957, 1943, 1941, 1956, 1969, 1936, 1948, 1956, 1960, 1937, 1938, 1943, 1956, 1942, 1970, 1931, 1950, 1946, 1945, 1939, 1958, 1939, 1965, 1965, 1962, 1950, 1966, 1960, 1961, 1939, 1946, 1940, 1946, 1949, 1950, 1953, 1964, 1956, 1969, 1962, 1947, 1950, 1944, 1947, 1951, 1970, 1954, 1987, 1974, 1970, 1968, 1953, 1982, 1970, 1965, 1966, 1970, 1981, 1979, 1969, 1976, 1976, 1969, 1989, 1971, 1951, 1977, 1951, 1981, 1989, 1985, 1986, 1987, 1975, 1962, 1970, 1993, 1979, 1979],
      "WindowCenter": [769.0, 765.0, 766.0, 767.0, 767.0, 765.0, 763.0, 763.0, 762.0, 762.0, 763.0, 764.0, 764.0, 765.0, 764.0, 764.0, 764.0, 764.0, 763.0, 763.0, 764.0, 765.0, 766.0, 766.0, 765.0, 765.0, 765.0, 764.0, 764.0, 764.0, 765.0, 766.0, 765.0, 765.0, 764.0, 764.0, 764.0, 765.0, 766.0, 765.0, 765.0, 764.0, 765.0, 764.0, 764.0, 764.0, 764.0, 764.0, 765.0, 765.0, 766.0, 765.0, 765.0, 765.0, 766.0, 765.0, 765.0, 764.0, 764.0, 763.0, 764.0, 764.0, 765.0, 764.0, 765.0, 765.0, 766.0, 765.0, 765.0, 765.0, 766.0, 766.0, 765.0, 765.0, 765.0, 765.0, 765.0, 765.0, 766.0, 767.0, 768.0, 767.0, 766.0, 765.0, 765.0, 766.0, 766.0, 766.0, 766.0, 766.0, 765.0, 765.0, 766.0, 766.0, 765.0, 764.0, 765.0, 765.0, 765.0, 765.0, 766.0, 766.0, 766.0, 767.0, 766.0, 766.0, 766.0, 766.0, 765.0, 765.0, 766.0, 766.0, 765.0, 765.0, 766.0, 766.0, 765.0, 764.0, 765.0, 765.0, 765.0, 765.0, 765.0, 765.0, 766.0, 766.0, 767.0, 766.0, 766.0, 766.0, 766.0, 766.0, 766.0, 767.0, 767.0, 767.0, 766.0, 766.0, 766.0, 767.0, 766.0, 765.0, 765.0, 765.0, 766.0, 766.0, 766.0, 766.0, 766.0, 766.0, 766.0, 766.0, 766.0, 767.0, 766.0, 765.0, 765.0, 765.0, 766.0, 766.0, 766.0, 766.0, 765.0, 765.0],
      "WindowWidth": [1677.0, 1665.0, 1667.0, 1669.0, 1670.0, 1664.0, 1659.0, 1658.0, 1655.0, 1658.0, 1659.0, 1661.0, 1662.0, 1664.0, 1662.0, 1662.0, 1662.0, 1661.0, 1660.0, 1661.0, 1662.0, 1664.0, 1669.0, 1668.0, 1665.0, 1664.0, 1665.0, 1661.0, 1663.0, 1663.0, 1665.0, 1668.0, 1665.0, 1664.0, 1663.0, 1663.0, 1663.0, 1665.0, 1667.0, 1665.0, 1665.0, 1663.0, 1664.0, 1663.0, 1663.0, 1662.0, 1662.0, 1663.0, 1664.0, 1666.0, 1667.0, 1666.0, 1665.0, 1665.0, 1667.0, 1665.0, 1664.0, 1663.0, 1661.0, 1659.0, 1662.0, 1663.0, 1664.0, 1662.0, 1663.0, 1664.0, 1667.0, 1666.0, 1664.0, 1666.0, 1666.0, 1667.0, 1664.0, 1665.0, 1665.0, 1664.0, 1665.0, 1665.0, 1668.0, 1671.0, 1672.0, 1670.0, 1666.0, 1665.0, 1665.0, 1667.0, 1667.0, 1667.0, 1668.0, 1667.0, 1665.0, 1665.0, 1667.0, 1666.0, 1665.0, 1662.0, 1666.0, 1665.0, 1665.0, 1666.0, 1666.0, 1668.0, 1668.0, 1669.0, 1668.0, 1668.0, 1666.0, 1667.0, 1664.0, 1666.0, 1666.0, 1666.0, 1665.0, 1665.0, 1666.0, 1666.0, 1664.0, 1662.0, 1664.0, 1665.0, 1665.0, 1665.0, 1664.0, 1664.0, 1668.0, 1667.0, 1669.0, 1667.0, 1666.0, 1668.0, 1668.0, 1666.0, 1666.0, 1669.0, 1670.0, 1671.0, 1668.0, 1667.0, 1666.0, 1668.0, 1667.0, 1665.0, 1664.0, 1665.0, 1667.0, 1668.0, 1667.0, 1668.0, 1667.0, 1666.0, 1667.0, 1668.0, 1666.0, 1670.0, 1666.0, 1665.0, 1663.0, 1664.0, 1667.0, 1666.0, 1668.0, 1668.0, 1665.0, 1664.0]
    },
    "slices": {}
  }
}