{
  "AcquisitionMatrixPE": 64,
  "AcquisitionNumber": 1,
  "AcquisitionTime": "14:53:57.387500",
  "BandwidthPerPixelPhaseEncode": 33.967,
  "BaseResolution": 64,
  "CoilCombinationMethod": "Sum of Squares",
  "CoilString": "C:HEA;HEP",
  "ConversionSoftware": "dcm2niix",
  "ConversionSoftwareVersion": "v1.0.20220720",
  "DerivedVendorReportedEchoSpacing": 0.000460005,
  "DeviceSerialNumber": "35193",
  "DwellTime": 3.1e-06,
  "EchoTime": 0.03,
  "EffectiveEchoSpacing": 0.000460005,
  "FlipAngle": 90,
  "HeudiconvVersion": "1.1.6",
  "ImageOrientationPatientDICOM": [1, 0, 0, 0, 1, 0],
  "ImageOrientationText": "Tra",
  "ImageType": [
    "ORIGINAL",
    "PRIMARY",
    "M",
    "ND",
    "MOSAIC"
],
  "ImagingFrequency": 123.254,
  "InPlanePhaseEncodingDirectionDICOM": "COL",
  "InstitutionAddress": "Xinjiekouwai Street No 19,Beijing,Haidian District,CN,100875",
  "InstitutionName": "Beijing Normal Universtiy/4C3F54/",
  "InstitutionalDepartmentName": "Department",
  "MRAcquisitionType": "2D",
  "MagneticFieldStrength": 3,
  "Manufacturer": "Siemens",
  "ManufacturersModelName": "TrioTim",
  "MatrixCoilMode": "SENSE",
  "Modality": "MR",
  "NonlinearGradientCorrection": false,
  "PartialFourier": 1,
  "PatientPosition": "HFS",
  "PercentPhaseFOV": 100,
  "PercentSampling": 100,
  "PhaseEncodingDirection": "j-",
  "PhaseEncodingSteps": 64,
  "PhaseResolution": 1,
  "PixelBandwidth": 2520,
  "ProcedureStepDescription": "BNU_cst_2015^Guo.TaoMei",
  "ProtocolName": "ge_func_3x3x4_164",
  "PulseSequenceDetails": "%SiemensSeq%\\ep2d_bold",
  "ReceiveCoilName": "HeadMatrix",
  "ReconMatrixPE": 64,
  "RepetitionTime": 2,
  "SAR": 0.159613,
  "ScanOptions": "FS",
  "ScanningSequence": "EP",
  "SequenceName": "*epfid2d1_64",
  "SequenceVariant": "SK",
  "SeriesDescription": "ge_func_3x3x4_164",
  "SeriesNumber": 2,
  "ShimSetting": [-4498, -19486, -9712, 1304, -105, -475, 20, 0],
  "SliceThickness": 4,
  "SliceTiming": [0, 1.0325, 0.06, 1.095, 0.12, 1.155, 0.1825, 1.215, 0.2425, 1.2775, 0.3025, 1.3375, 0.365, 1.3975, 0.425, 1.46, 0.485, 1.52, 0.5475, 1.58, 0.6075, 1.6425, 0.6675, 1.7025, 0.73, 1.7625, 0.79, 1.825, 0.85, 1.885, 0.9125, 1.945, 0.9725],
  "SoftwareVersions": "syngo MR B17",
  "SpacingBetweenSlices": 4.6,
  "StationName": "MRC35193",
  "TaskName": "LanguageControl",
  "TotalReadoutTime": 0.0289803,
  "TxRefAmp": 343.166,
  "dcmmeta_affine": [
    [-3.125, 0.0, 0.0, 100.0],
    [0.0, 3.125, 0.0, -84.05572509765625],
    [0.0, 0.0, 4.599999904632568, -39.86505889892578],
    [0.0, 0.0, 0.0, 1.0]
],
  "dcmmeta_reorient_transform": [
    [0.0, -1.0, 0.0, 63.0],
    [1.0, 0.0, 0.0, 0.0],
    [0.0, 0.0, 1.0, 0.0],
    [0.0, 0.0, 0.0, 1.0]
],
  "dcmmeta_shape": [64, 64, 33, 164],
  "dcmmeta_slice_dim": 2,
  "dcmmeta_version": 0.6,
  "global": {
    "const": {
      "AcquisitionMatrix": [64, 0, 0, 64],
      "AngioFlag": "N",
      "BitsAllocated": 16,
      "BitsStored": 12,
      "Columns": 384,
      "EchoNumbers": 1,
      "EchoTime": 30.0,
      "EchoTrainLength": 1,
      "FlipAngle": 90.0,
      "HighBit": 11,
      "ImageOrientationPatient": [1.0, 0.0, 0.0, 0.0, 1.0, 0.0],
      "ImagePositionPatient": [-600.0, -612.81927680969, -39.865058898926],
      "ImageType": [
        "ORIGINAL",
        "PRIMARY",
        "M",
        "ND",
        "MOSAIC"
],
      "ImagedNucleus": "1H",
      "ImagingFrequency": 123.253661,
      "InPlanePhaseEncodingDirection": "COL",
      "MRAcquisitionType": "2D",
      "MagneticFieldStrength": 3.0,
      "Manufacturer": "SIEMENS",
      "ManufacturerModelName": "TrioTim",
      "Modality": "MR",
      "NumberOfAverages": 1.0,
      "NumberOfPhaseEncodingSteps": 64,
      "PercentPhaseFieldOfView": 100.0,
      "PercentSampling": 100.0,
      "PerformedProcedureStepStartTime": "145210.390000",
      "PhotometricInterpretation": "MONOCHROME2",
      "PixelBandwidth": 2520.0,
      "PixelRepresentation": 0,
      "PixelSpacing": [3.125, 3.125],
      "ProtocolName": "ge_func_3x3x4_164",
      "RepetitionTime": 2000.0,
      "Rows": 384,
      "SAR": 0.15961321534404,
      "SamplesPerPixel": 1,
      "ScanOptions": "FS",
      "ScanningSequence": "EP",
      "SequenceName": "*epfid2d1_64",
      "SequenceVariant": "SK",
      "SeriesDescription": "ge_func_3x3x4_164",
      "SeriesNumber": 2,
      "SeriesTime": "145447.640000",
      "SliceLocation": -39.865058898926,
      "SliceThickness": 4.0,
      "SmallestImagePixelValue": 0,
      "SoftwareVersions": "syngo MR B17",
      "SpacingBetweenSlices": 4.5999999046326,
      "SpecificCharacterSet": "ISO_IR 100",
      "StudyID": "1",
      "StudyTime": "145210.343000",
      "TransmitCoilName": "Body",
      "VariableFlipAngleFlag": "N",
      "WindowCenterWidthExplanation": "Algo1",
      "dBdt": 0.0},
    "slices": {}
  },
  "time": {
    "samples": {
      "AcquisitionNumber": [1, 2, 3, 4, 5, 6, 7, 8, 9, 10, 11, 12, 13, 14, 15, 16, 17, 18, 19, 20, 21, 22, 23, 24, 25, 26, 27, 28, 29, 30, 31, 32, 33, 34, 35, 36, 37, 38, 39, 40, 41, 42, 43, 44, 45, 46, 47, 48, 49, 50, 51, 52, 53, 54, 55, 56, 57, 58, 59, 60, 61, 62, 63, 64, 65, 66, 67, 68, 69, 70, 71, 72, 73, 74, 75, 76, 77, 78, 79, 80, 81, 82, 83, 84, 85, 86, 87, 88, 89, 90, 91, 92, 93, 94, 95, 96, 97, 98, 99, 100, 101, 102, 103, 104, 105, 106, 107, 108, 109, 110, 111, 112, 113, 114, 115, 116, 117, 118, 119, 120, 121, 122, 123, 124, 125, 126, 127, 128, 129, 130, 131, 132, 133, 134, 135, 136, 137, 138, 139, 140, 141, 142, 143, 144, 145, 146, 147, 148, 149, 150, 151, 152, 153, 154, 155, 156, 157, 158, 159, 160, 161, 162, 163, 164],
      "AcquisitionTime": ["145357.387500", "145359.395000", "145401.402500", "145403.410000", "145405.420000", "145407.427500", "145409.435000", "145411.442500", "145413.450000", "145415.460000", "145417.467500", "145419.475000", "145421.482500", "145423.490000", "145425.500000", "145427.507500", "145429.515000", "145431.522500", "145433.532500", "145435.540000", "145437.547500", "145439.555000", "145441.562500", "145443.572500", "145445.580000", "145447.587500", "145449.595000", "145451.602500", "145453.612500", "145455.620000", "145457.627500", "145459.635000", "145501.642500", "145503.652500", "145505.660000", "145507.667500", "145509.675000", "145511.685000", "145513.692500", "145515.700000", "145517.707500", "145519.715000", "145521.725000", "145523.732500", "145525.740000", "145527.747500", "145529.755000", "145531.765000", "145533.772500", "145535.780000", "145537.787500", "145539.797500", "145541.805000", "145543.812500", "145545.820000", "145547.827500", "145549.837500", "145551.845000", "145553.852500", "145555.860000", "145557.867500", "145559.877500", "145601.885000", "145603.892500", "145605.900000", "145607.910000", "145609.917500", "145611.925000", "145613.932500", "145615.940000", "145617.950000", "145619.957500", "145621.965000", "145623.972500", "145625.980000", "145627.990000", "145629.997500", "145632.005000", "145634.012500", "145636.022500", "145638.030000", "145640.037500", "145642.045000", "145644.052500", "145646.062500", "145648.070000", "145650.077500", "145652.085000", "145654.092500", "145656.102500", "145658.110000", "145700.117500", "145702.125000", "145704.132500", "145706.142500", "145708.150000", "145710.157500", "145712.165000", "145714.175000", "145716.182500", "145718.190000", "145720.197500", "145722.205000", "145724.215000", "145726.222500", "145728.230000", "145730.237500", "145732.245000", "145734.255000", "145736.262500", "145738.270000", "145740.277500", "145742.287500", "145744.295000", "145746.302500", "145748.310000", "145750.317500", "145752.327500", "145754.335000", "145756.342500", "145758.350000", "145800.357500", "145802.367500", "145804.375000", "145806.382500", "145808.390000", "145810.400000", "145812.407500", "145814.415000", "145816.422500", "145818.430000", "145820.440000", "145822.447500", "145824.455000", "145826.462500", "145828.470000", "145830.480000", "145832.487500", "145834.495000", "145836.502500", "145838.510000", "145840.520000", "145842.527500", "145844.535000", "145846.542500", "145848.552500", "145850.560000", "145852.567500", "145854.575000", "145856.582500", "145858.592500", "145900.600000", "145902.607500", "145904.615000", "145906.622500", "145908.632500", "145910.640000", "145912.647500", "145914.655000", "145916.665000", "145918.672500", "145920.680000", "145922.687500", "145924.695000"],
      "ContentTime": ["145447.656000", "145447.656000", "145447.656000", "145447.656000", "145447.656000", "145447.656000", "145447.656000", "145447.671000", "145447.671000", "145447.671000", "145447.671000", "145447.671000", "145447.671000", "145447.671000", "145447.671000", "145447.687000", "145447.687000", "145447.687000", "145447.687000", "145447.687000", "145447.687000", "145447.687000", "145447.703000", "145447.703000", "145527.640000", "145527.640000", "145527.640000", "145527.656000", "145527.656000", "145527.656000", "145527.656000", "145527.656000", "145527.656000", "145527.656000", "145527.656000", "145527.671000", "145527.671000", "145527.671000", "145527.671000", "145527.671000", "145527.671000", "145527.671000", "145527.687000", "145527.687000", "145607.640000", "145607.640000", "145607.640000", "145607.656000", "145607.656000", "145607.656000", "145607.656000", "145607.656000", "145607.656000", "145607.671000", "145607.687000", "145607.687000", "145607.687000", "145607.687000", "145607.687000", "145607.687000", "145607.687000", "145607.703000", "145607.703000", "145607.703000", "145647.640000", "145647.640000", "145647.640000", "145647.656000", "145647.656000", "145647.671000", "145647.671000", "145647.671000", "145647.671000", "145647.671000", "145647.671000", "145647.671000", "145647.687000", "145647.687000", "145647.687000", "145647.703000", "145647.703000", "145647.703000", "145647.703000", "145647.703000", "145727.640000", "145727.656000", "145727.656000", "145727.656000", "145727.671000", "145727.671000", "145727.671000", "145727.671000", "145727.687000", "145727.687000", "145727.687000", "145727.687000", "145727.687000", "145727.687000", "145727.687000", "145727.703000", "145727.703000", "145727.703000", "145727.703000", "145727.703000", "145807.640000", "145807.640000", "145807.640000", "145807.656000", "145807.656000", "145807.656000", "145807.656000", "145807.656000", "145807.656000", "145807.656000", "145807.656000", "145807.671000", "145807.671000", "145807.671000", "145807.671000", "145807.671000", "145807.671000", "145807.671000", "145807.671000", "145807.687000", "145847.640000", "145847.640000", "145847.640000", "145847.656000", "145847.656000", "145847.656000", "145847.656000", "145847.656000", "145847.656000", "145847.656000", "145847.656000", "145847.671000", "145847.671000", "145847.671000", "145847.671000", "145847.671000", "145847.671000", "145847.671000", "145847.671000", "145847.687000", "145926.281000", "145926.281000", "145926.281000", "145926.281000", "145926.296000", "145926.296000", "145926.296000", "145926.296000", "145926.296000", "145926.296000", "145926.296000", "145926.312000", "145926.312000", "145926.312000", "145926.312000", "145926.312000", "145926.328000", "145926.328000", "145926.328000", "145926.328000"],
      "InstanceCreationTime": ["145447.656000", "145447.656000", "145447.656000", "145447.656000", "145447.656000", "145447.656000", "145447.656000", "145447.671000", "145447.671000", "145447.671000", "145447.671000", "145447.671000", "145447.671000", "145447.671000", "145447.671000", "145447.687000", "145447.687000", "145447.687000", "145447.687000", "145447.687000", "145447.687000", "145447.687000", "145447.703000", "145447.703000", "145527.640000", "145527.640000", "145527.640000", "145527.656000", "145527.656000", "145527.656000", "145527.656000", "145527.656000", "145527.656000", "145527.656000", "145527.656000", "145527.671000", "145527.671000", "145527.671000", "145527.671000", "145527.671000", "145527.671000", "145527.671000", "145527.687000", "145527.687000", "145607.640000", "145607.640000", "145607.640000", "145607.656000", "145607.656000", "145607.656000", "145607.656000", "145607.656000", "145607.656000", "145607.671000", "145607.687000", "145607.687000", "145607.687000", "145607.687000", "145607.687000", "145607.687000", "145607.687000", "145607.703000", "145607.703000", "145607.703000", "145647.640000", "145647.640000", "145647.640000", "145647.656000", "145647.656000", "145647.671000", "145647.671000", "145647.671000", "145647.671000", "145647.671000", "145647.671000", "145647.671000", "145647.687000", "145647.687000", "145647.687000", "145647.703000", "145647.703000", "145647.703000", "145647.703000", "145647.703000", "145727.640000", "145727.656000", "145727.656000", "145727.656000", "145727.671000", "145727.671000", "145727.671000", "145727.671000", "145727.687000", "145727.687000", "145727.687000", "145727.687000", "145727.687000", "145727.687000", "145727.687000", "145727.703000", "145727.703000", "145727.703000", "145727.703000", "145727.703000", "145807.640000", "145807.640000", "145807.640000", "145807.656000", "145807.656000", "145807.656000", "145807.656000", "145807.656000", "145807.656000", "145807.656000", "145807.656000", "145807.671000", "145807.671000", "145807.671000", "145807.671000", "145807.671000", "145807.671000", "145807.671000", "145807.671000", "145807.687000", "145847.640000", "145847.640000", "145847.640000", "145847.656000", "145847.656000", "145847.656000", "145847.656000", "145847.656000", "145847.656000", "145847.656000", "145847.656000", "145847.671000", "145847.671000", "145847.671000", "145847.671000", "145847.671000", "145847.671000", "145847.671000", "145847.671000", "145847.687000", "145926.281000", "145926.281000", "145926.281000", "145926.281000", "145926.296000", "145926.296000", "145926.296000", "145926.296000", "145926.296000", "145926.296000", "145926.296000", "145926.312000", "145926.312000", "145926.312000", "145926.312000", "145926.312000", "145926.328000", "145926.328000", "145926.328000", "145926.328000"],
      "InstanceNumber": [1, 2, 3, 4, 5, 6, 7, 8, 9, 10, 11, 12, 13, 14, 15, 16, 17, 18, 19, 20, 21, 22, 23, 24, 25, 26, 27, 28, 29, 30, 31, 32, 33, 34, 35, 36, 37, 38, 39, 40, 41, 42, 43, 44, 45, 46, 47, 48, 49, 50, 51, 52, 53, 54, 55, 56, 57, 58, 59, 60, 61, 62, 63, 64, 65, 66, 67, 68, 69, 70, 71, 72, 73, 74, 75, 76, 77, 78, 79, 80, 81, 82, 83, 84, 85, 86, 87, 88, 89, 90, 91, 92, 93, 94, 95, 96, 97, 98, 99, 100, 101, 102, 103, 104, 105, 106, 107, 108, 109, 110, 111, 112, 113, 114, 115, 116, 117, 118, 119, 120, 121, 122, 123, 124, 125, 126, 127, 128, 129, 130, 131, 132, 133, 134, 135, 136, 137, 138, 139, 140, 141, 142, 143, 144, 145, 146, 147, 148, 149, 150, 151, 152, 153, 154, 155, 156, 157, 158, 159, 160, 161, 162, 163, 164],
      "LargestImagePixelValue": [2135, 2073, 2010, 2020, 2030, 2008, 2008, 2009, 2019, 2159, 2009, 2042, 2006, 2001, 2042, 2033, 2036, 2013, 2063, 2035, 2050, 2017, 2042, 2054, 2029, 2070, 2068, 2078, 2082, 2053, 2052, 2043, 2056, 2048, 2086, 2049, 2067, 2060, 2054, 2053, 2062, 2083, 2026, 2082, 2059, 2047, 2038, 2058, 2067, 2094, 2073, 2078, 2073, 2054, 2058, 2061, 2075, 2085, 2036, 2064, 2046, 2054, 2072, 2063, 2084, 2050, 2065, 2028, 2057, 2044, 2043, 2070, 2040, 2069, 2062, 2065, 2077, 2061, 2047, 2004, 2023, 2061, 2044, 2046, 2047, 2026, 2028, 2063, 2039, 2028, 2042, 2020, 2061, 2052, 2021, 2056, 2042, 2038, 2023, 2034, 2066, 2067, 2035, 2035, 2092, 2015, 2071, 2082, 2042, 2081, 2145, 2061, 2059, 2088, 2077, 2066, 2046, 2055, 2074, 2063, 2025, 2057, 2042, 2073, 2041, 2053, 2044, 2088, 2073, 2039, 2045, 2045, 2066, 2071, 2054, 2022, 2064, 2034, 2080, 2072, 2072, 2076, 2074, 2054, 2059, 2075, 2077, 2073, 2054, 2062, 2058, 2050, 2064, 2054, 2070, 2098, 2037, 2043, 1997, 2071, 2050, 2069, 2050, 2047],
      "WindowCenter": [791.0, 787.0, 787.0, 787.0, 788.0, 788.0, 788.0, 788.0, 788.0, 789.0, 788.0, 789.0, 788.0, 788.0, 788.0, 787.0, 787.0, 787.0, 788.0, 788.0, 787.0, 787.0, 787.0, 787.0, 787.0, 786.0, 785.0, 786.0, 787.0, 786.0, 786.0, 786.0, 786.0, 786.0, 785.0, 786.0, 787.0, 787.0, 786.0, 785.0, 785.0, 785.0, 785.0, 785.0, 785.0, 787.0, 786.0, 785.0, 784.0, 785.0, 785.0, 786.0, 785.0, 785.0, 786.0, 785.0, 786.0, 785.0, 785.0, 785.0, 785.0, 785.0, 785.0, 785.0, 786.0, 786.0, 786.0, 785.0, 786.0, 786.0, 787.0, 787.0, 786.0, 785.0, 785.0, 785.0, 786.0, 787.0, 788.0, 788.0, 788.0, 789.0, 787.0, 786.0, 787.0, 788.0, 788.0, 788.0, 788.0, 788.0, 789.0, 787.0, 786.0, 786.0, 787.0, 788.0, 787.0, 788.0, 788.0, 786.0, 788.0, 788.0, 787.0, 786.0, 787.0, 787.0, 788.0, 788.0, 786.0, 787.0, 787.0, 785.0, 786.0, 786.0, 787.0, 787.0, 786.0, 786.0, 786.0, 787.0, 787.0, 787.0, 788.0, 788.0, 787.0, 786.0, 786.0, 787.0, 788.0, 788.0, 787.0, 786.0, 786.0, 787.0, 788.0, 788.0, 788.0, 788.0, 787.0, 786.0, 786.0, 786.0, 787.0, 787.0, 788.0, 787.0, 787.0, 787.0, 787.0, 788.0, 788.0, 788.0, 787.0, 786.0, 786.0, 787.0, 788.0, 787.0, 788.0, 788.0, 788.0, 788.0, 787.0, 786.0],
      "WindowWidth": [1707.0, 1698.0, 1697.0, 1698.0, 1699.0, 1699.0, 1700.0, 1700.0, 1699.0, 1703.0, 1700.0, 1702.0, 1700.0, 1698.0, 1699.0, 1698.0, 1697.0, 1696.0, 1700.0, 1700.0, 1697.0, 1696.0, 1697.0, 1697.0, 1696.0, 1695.0, 1693.0, 1694.0, 1696.0, 1694.0, 1694.0, 1695.0, 1695.0, 1694.0, 1693.0, 1694.0, 1696.0, 1696.0, 1695.0, 1693.0, 1691.0, 1692.0, 1692.0, 1693.0, 1692.0, 1696.0, 1693.0, 1691.0, 1690.0, 1691.0, 1693.0, 1694.0, 1693.0, 1693.0, 1693.0, 1693.0, 1695.0, 1692.0, 1691.0, 1693.0, 1693.0, 1692.0, 1692.0, 1692.0, 1695.0, 1695.0, 1694.0, 1692.0, 1694.0, 1695.0, 1698.0, 1697.0, 1694.0, 1693.0, 1691.0, 1693.0, 1694.0, 1697.0, 1699.0, 1699.0, 1699.0, 1701.0, 1698.0, 1696.0, 1698.0, 1701.0, 1699.0, 1699.0, 1699.0, 1701.0, 1703.0, 1697.0, 1694.0, 1695.0, 1697.0, 1699.0, 1697.0, 1699.0, 1698.0, 1695.0, 1698.0, 1699.0, 1696.0, 1694.0, 1697.0, 1696.0, 1700.0, 1699.0, 1695.0, 1698.0, 1696.0, 1692.0, 1693.0, 1694.0, 1697.0, 1698.0, 1694.0, 1693.0, 1694.0, 1697.0, 1697.0, 1697.0, 1701.0, 1700.0, 1697.0, 1695.0, 1695.0, 1696.0, 1701.0, 1701.0, 1696.0, 1695.0, 1694.0, 1698.0, 1699.0, 1701.0, 1699.0, 1701.0, 1698.0, 1695.0, 1695.0, 1695.0, 1698.0, 1698.0, 1700.0, 1698.0, 1697.0, 1698.0, 1699.0, 1699.0, 1701.0, 1700.0, 1698.0, 1693.0, 1693.0, 1699.0, 1699.0, 1697.0, 1699.0, 1699.0, 1699.0, 1701.0, 1697.0, 1693.0]
    },
    "slices": {}
  }
}