{
  "AcquisitionMatrixPE": 64,
  "AcquisitionNumber": 1,
  "AcquisitionTime": "15:12:38.635000",
  "BandwidthPerPixelPhaseEncode": 33.967,
  "BaseResolution": 64,
  "CoilCombinationMethod": "Sum of Squares",
  "CoilString": "C:HEA;HEP",
  "ConversionSoftware": "dcm2niix",
  "ConversionSoftwareVersion": "v1.0.20220720",
  "DerivedVendorReportedEchoSpacing": 0.000460005,
  "DeviceSerialNumber": "35193",
  "DwellTime": 3.1e-06,
  "EchoTime": 0.03,
  "EffectiveEchoSpacing": 0.000460005,
  "FlipAngle": 90,
  "HeudiconvVersion": "1.1.6",
  "ImageOrientationPatientDICOM": [1, 0, 0, 0, 1, 0],
  "ImageOrientationText": "Tra",
  "ImageType": [
    "ORIGINAL",
    "PRIMARY",
    "M",
    "ND",
    "MOSAIC"
],
  "ImagingFrequency": 123.254,
  "InPlanePhaseEncodingDirectionDICOM": "COL",
  "InstitutionAddress": "Xinjiekouwai Street No 19,Beijing,Haidian District,CN,100875",
  "InstitutionName": "Beijing Normal Universtiy/4C3F54/",
  "InstitutionalDepartmentName": "Department",
  "MRAcquisitionType": "2D",
  "MagneticFieldStrength": 3,
  "Manufacturer": "Siemens",
  "ManufacturersModelName": "TrioTim",
  "MatrixCoilMode": "SENSE",
  "Modality": "MR",
  "NonlinearGradientCorrection": false,
  "PartialFourier": 1,
  "PatientPosition": "HFS",
  "PercentPhaseFOV": 100,
  "PercentSampling": 100,
  "PhaseEncodingDirection": "j-",
  "PhaseEncodingSteps": 64,
  "PhaseResolution": 1,
  "PixelBandwidth": 2520,
  "ProcedureStepDescription": "BNU_cst_2015^Guo.TaoMei",
  "ProtocolName": "ge_func_3x3x4_164",
  "PulseSequenceDetails": "%SiemensSeq%\\ep2d_bold",
  "ReceiveCoilName": "HeadMatrix",
  "ReconMatrixPE": 64,
  "RepetitionTime": 2,
  "SAR": 0.159613,
  "ScanOptions": "FS",
  "ScanningSequence": "EP",
  "SequenceName": "*epfid2d1_64",
  "SequenceVariant": "SK",
  "SeriesDescription": "ge_func_3x3x4_164",
  "SeriesNumber": 5,
  "ShimSetting": [-4498, -19486, -9712, 1304, -105, -475, 20, 0],
  "SliceThickness": 4,
  "SliceTiming": [0, 1.0325, 0.06, 1.095, 0.12, 1.155, 0.1825, 1.215, 0.2425, 1.2775, 0.3025, 1.3375, 0.365, 1.3975, 0.425, 1.46, 0.485, 1.52, 0.5475, 1.58, 0.6075, 1.6425, 0.6675, 1.7025, 0.73, 1.7625, 0.79, 1.825, 0.85, 1.885, 0.9125, 1.945, 0.9725],
  "SoftwareVersions": "syngo MR B17",
  "SpacingBetweenSlices": 4.6,
  "StationName": "MRC35193",
  "TaskName": "CognitiveControl",
  "TotalReadoutTime": 0.0289803,
  "TxRefAmp": 343.166,
  "dcmmeta_affine": [
    [-3.125, 0.0, 0.0, 100.0],
    [0.0, 3.125, 0.0, -84.05572509765625],
    [0.0, 0.0, 4.599999904632568, -39.86505889892578],
    [0.0, 0.0, 0.0, 1.0]
],
  "dcmmeta_reorient_transform": [
    [0.0, -1.0, 0.0, 63.0],
    [1.0, 0.0, 0.0, 0.0],
    [0.0, 0.0, 1.0, 0.0],
    [0.0, 0.0, 0.0, 1.0]
],
  "dcmmeta_shape": [64, 64, 33, 164],
  "dcmmeta_slice_dim": 2,
  "dcmmeta_version": 0.6,
  "global": {
    "const": {
      "AcquisitionMatrix": [64, 0, 0, 64],
      "AngioFlag": "N",
      "BitsAllocated": 16,
      "BitsStored": 12,
      "Columns": 384,
      "EchoNumbers": 1,
      "EchoTime": 30.0,
      "EchoTrainLength": 1,
      "FlipAngle": 90.0,
      "HighBit": 11,
      "ImageOrientationPatient": [1.0, 0.0, 0.0, 0.0, 1.0, 0.0],
      "ImagePositionPatient": [-600.0, -612.81927680969, -39.865058898926],
      "ImageType": [
        "ORIGINAL",
        "PRIMARY",
        "M",
        "ND",
        "MOSAIC"
],
      "ImagedNucleus": "1H",
      "ImagingFrequency": 123.253663,
      "InPlanePhaseEncodingDirection": "COL",
      "MRAcquisitionType": "2D",
      "MagneticFieldStrength": 3.0,
      "Manufacturer": "SIEMENS",
      "ManufacturerModelName": "TrioTim",
      "Modality": "MR",
      "NumberOfAverages": 1.0,
      "NumberOfPhaseEncodingSteps": 64,
      "PercentPhaseFieldOfView": 100.0,
      "PercentSampling": 100.0,
      "PerformedProcedureStepStartTime": "145210.390000",
      "PhotometricInterpretation": "MONOCHROME2",
      "PixelBandwidth": 2520.0,
      "PixelRepresentation": 0,
      "PixelSpacing": [3.125, 3.125],
      "ProtocolName": "ge_func_3x3x4_164",
      "RepetitionTime": 2000.0,
      "Rows": 384,
      "SAR": 0.15961321534404,
      "SamplesPerPixel": 1,
      "ScanOptions": "FS",
      "ScanningSequence": "EP",
      "SequenceName": "*epfid2d1_64",
      "SequenceVariant": "SK",
      "SeriesDescription": "ge_func_3x3x4_164",
      "SeriesNumber": 5,
      "SeriesTime": "151327.640000",
      "SliceLocation": -39.865058898926,
      "SliceThickness": 4.0,
      "SmallestImagePixelValue": 0,
      "SoftwareVersions": "syngo MR B17",
      "SpacingBetweenSlices": 4.5999999046326,
      "SpecificCharacterSet": "ISO_IR 100",
      "StudyID": "1",
      "StudyTime": "145210.343000",
      "TransmitCoilName": "Body",
      "VariableFlipAngleFlag": "N",
      "WindowCenterWidthExplanation": "Algo1",
      "dBdt": 0.0},
    "slices": {}
  },
  "time": {
    "samples": {
      "AcquisitionNumber": [1, 2, 3, 4, 5, 6, 7, 8, 9, 10, 11, 12, 13, 14, 15, 16, 17, 18, 19, 20, 21, 22, 23, 24, 25, 26, 27, 28, 29, 30, 31, 32, 33, 34, 35, 36, 37, 38, 39, 40, 41, 42, 43, 44, 45, 46, 47, 48, 49, 50, 51, 52, 53, 54, 55, 56, 57, 58, 59, 60, 61, 62, 63, 64, 65, 66, 67, 68, 69, 70, 71, 72, 73, 74, 75, 76, 77, 78, 79, 80, 81, 82, 83, 84, 85, 86, 87, 88, 89, 90, 91, 92, 93, 94, 95, 96, 97, 98, 99, 100, 101, 102, 103, 104, 105, 106, 107, 108, 109, 110, 111, 112, 113, 114, 115, 116, 117, 118, 119, 120, 121, 122, 123, 124, 125, 126, 127, 128, 129, 130, 131, 132, 133, 134, 135, 136, 137, 138, 139, 140, 141, 142, 143, 144, 145, 146, 147, 148, 149, 150, 151, 152, 153, 154, 155, 156, 157, 158, 159, 160, 161, 162, 163, 164],
      "AcquisitionTime": ["151238.635000", "151240.642500", "151242.650000", "151244.657500", "151246.665000", "151248.675000", "151250.682500", "151252.690000", "151254.697500", "151256.705000", "151258.715000", "151300.722500", "151302.730000", "151304.737500", "151306.747500", "151308.755000", "151310.762500", "151312.770000", "151314.777500", "151316.787500", "151318.795000", "151320.802500", "151322.810000", "151324.817500", "151326.827500", "151328.835000", "151330.842500", "151332.850000", "151334.860000", "151336.867500", "151338.875000", "151340.882500", "151342.890000", "151344.900000", "151346.907500", "151348.915000", "151350.922500", "151352.930000", "151354.940000", "151356.947500", "151358.955000", "151400.962500", "151402.970000", "151404.980000", "151406.987500", "151408.995000", "151411.002500", "151413.012500", "151415.020000", "151417.027500", "151419.035000", "151421.042500", "151423.052500", "151425.060000", "151427.067500", "151429.075000", "151431.082500", "151433.092500", "151435.100000", "151437.107500", "151439.115000", "151441.125000", "151443.132500", "151445.140000", "151447.147500", "151449.155000", "151451.165000", "151453.172500", "151455.180000", "151457.187500", "151459.195000", "151501.205000", "151503.212500", "151505.220000", "151507.227500", "151509.237500", "151511.245000", "151513.252500", "151515.260000", "151517.267500", "151519.277500", "151521.285000", "151523.292500", "151525.300000", "151527.307500", "151529.317500", "151531.325000", "151533.332500", "151535.340000", "151537.350000", "151539.357500", "151541.365000", "151543.372500", "151545.380000", "151547.390000", "151549.397500", "151551.405000", "151553.412500", "151555.420000", "151557.430000", "151559.437500", "151601.445000", "151603.452500", "151605.460000", "151607.470000", "151609.477500", "151611.485000", "151613.492500", "151615.502500", "151617.510000", "151619.517500", "151621.525000", "151623.532500", "151625.542500", "151627.550000", "151629.557500", "151631.565000", "151633.572500", "151635.582500", "151637.590000", "151639.597500", "151641.605000", "151643.615000", "151645.622500", "151647.630000", "151649.637500", "151651.645000", "151653.655000", "151655.662500", "151657.670000", "151659.677500", "151701.685000", "151703.695000", "151705.702500", "151707.710000", "151709.717500", "151711.727500", "151713.735000", "151715.742500", "151717.750000", "151719.757500", "151721.767500", "151723.775000", "151725.782500", "151727.790000", "151729.797500", "151731.807500", "151733.815000", "151735.822500", "151737.830000", "151739.837500", "151741.847500", "151743.855000", "151745.862500", "151747.870000", "151749.880000", "151751.887500", "151753.895000", "151755.902500", "151757.910000", "151759.920000", "151801.927500", "151803.935000", "151805.942500"],
      "ContentTime": ["151327.656000", "151327.656000", "151327.656000", "151327.671000", "151327.671000", "151327.671000", "151327.671000", "151327.671000", "151327.671000", "151327.671000", "151327.687000", "151327.687000", "151327.687000", "151327.687000", "151327.703000", "151327.703000", "151327.703000", "151327.703000", "151327.703000", "151327.703000", "151327.703000", "151327.703000", "151327.718000", "151407.640000", "151407.640000", "151407.640000", "151407.656000", "151407.656000", "151407.656000", "151407.656000", "151407.671000", "151407.671000", "151407.671000", "151407.671000", "151407.671000", "151407.671000", "151407.671000", "151407.671000", "151407.687000", "151407.687000", "151407.687000", "151407.687000", "151407.703000", "151447.640000", "151447.640000", "151447.640000", "151447.656000", "151447.656000", "151447.656000", "151447.656000", "151447.656000", "151447.656000", "151447.656000", "151447.656000", "151447.671000", "151447.671000", "151447.671000", "151447.671000", "151447.671000", "151447.671000", "151447.671000", "151447.671000", "151447.687000", "151527.640000", "151527.656000", "151527.656000", "151527.671000", "151527.671000", "151527.671000", "151527.671000", "151527.687000", "151527.687000", "151527.687000", "151527.687000", "151527.687000", "151527.687000", "151527.687000", "151527.703000", "151527.703000", "151527.703000", "151527.703000", "151527.703000", "151527.703000", "151607.640000", "151607.656000", "151607.656000", "151607.656000", "151607.656000", "151607.671000", "151607.671000", "151607.671000", "151607.671000", "151607.671000", "151607.671000", "151607.671000", "151607.671000", "151607.687000", "151607.687000", "151607.687000", "151607.687000", "151607.687000", "151607.687000", "151607.687000", "151647.640000", "151647.656000", "151647.656000", "151647.656000", "151647.656000", "151647.671000", "151647.671000", "151647.671000", "151647.671000", "151647.671000", "151647.671000", "151647.671000", "151647.671000", "151647.687000", "151647.687000", "151647.687000", "151647.687000", "151647.687000", "151647.687000", "151647.687000", "151727.640000", "151727.640000", "151727.640000", "151727.656000", "151727.656000", "151727.656000", "151727.656000", "151727.656000", "151727.656000", "151727.656000", "151727.656000", "151727.671000", "151727.671000", "151727.671000", "151727.671000", "151727.671000", "151727.671000", "151727.671000", "151727.671000", "151727.687000", "151807.640000", "151807.656000", "151807.656000", "151807.656000", "151807.656000", "151807.656000", "151807.656000", "151807.656000", "151807.656000", "151807.671000", "151807.671000", "151807.671000", "151807.671000", "151807.671000", "151807.671000", "151807.671000", "151807.671000", "151807.687000", "151807.687000", "151807.687000", "151807.843000"],
      "InstanceCreationTime": ["151327.656000", "151327.656000", "151327.656000", "151327.671000", "151327.671000", "151327.671000", "151327.671000", "151327.671000", "151327.671000", "151327.671000", "151327.687000", "151327.687000", "151327.687000", "151327.687000", "151327.703000", "151327.703000", "151327.703000", "151327.703000", "151327.703000", "151327.703000", "151327.703000", "151327.703000", "151327.718000", "151407.640000", "151407.640000", "151407.640000", "151407.656000", "151407.656000", "151407.656000", "151407.656000", "151407.671000", "151407.671000", "151407.671000", "151407.671000", "151407.671000", "151407.671000", "151407.671000", "151407.671000", "151407.687000", "151407.687000", "151407.687000", "151407.687000", "151407.703000", "151447.640000", "151447.640000", "151447.640000", "151447.656000", "151447.656000", "151447.656000", "151447.656000", "151447.656000", "151447.656000", "151447.656000", "151447.656000", "151447.671000", "151447.671000", "151447.671000", "151447.671000", "151447.671000", "151447.671000", "151447.671000", "151447.671000", "151447.687000", "151527.640000", "151527.656000", "151527.656000", "151527.671000", "151527.671000", "151527.671000", "151527.671000", "151527.687000", "151527.687000", "151527.687000", "151527.687000", "151527.687000", "151527.687000", "151527.687000", "151527.703000", "151527.703000", "151527.703000", "151527.703000", "151527.703000", "151527.703000", "151607.640000", "151607.656000", "151607.656000", "151607.656000", "151607.656000", "151607.671000", "151607.671000", "151607.671000", "151607.671000", "151607.671000", "151607.671000", "151607.671000", "151607.671000", "151607.687000", "151607.687000", "151607.687000", "151607.687000", "151607.687000", "151607.687000", "151607.687000", "151647.640000", "151647.656000", "151647.656000", "151647.656000", "151647.656000", "151647.671000", "151647.671000", "151647.671000", "151647.671000", "151647.671000", "151647.671000", "151647.671000", "151647.671000", "151647.687000", "151647.687000", "151647.687000", "151647.687000", "151647.687000", "151647.687000", "151647.687000", "151727.640000", "151727.640000", "151727.640000", "151727.656000", "151727.656000", "151727.656000", "151727.656000", "151727.656000", "151727.656000", "151727.656000", "151727.656000", "151727.671000", "151727.671000", "151727.671000", "151727.671000", "151727.671000", "151727.671000", "151727.671000", "151727.671000", "151727.687000", "151807.640000", "151807.656000", "151807.656000", "151807.656000", "151807.656000", "151807.656000", "151807.656000", "151807.656000", "151807.656000", "151807.671000", "151807.671000", "151807.671000", "151807.671000", "151807.671000", "151807.671000", "151807.671000", "151807.671000", "151807.687000", "151807.687000", "151807.687000", "151807.843000"],
      "InstanceNumber": [1, 2, 3, 4, 5, 6, 7, 8, 9, 10, 11, 12, 13, 14, 15, 16, 17, 18, 19, 20, 21, 22, 23, 24, 25, 26, 27, 28, 29, 30, 31, 32, 33, 34, 35, 36, 37, 38, 39, 40, 41, 42, 43, 44, 45, 46, 47, 48, 49, 50, 51, 52, 53, 54, 55, 56, 57, 58, 59, 60, 61, 62, 63, 64, 65, 66, 67, 68, 69, 70, 71, 72, 73, 74, 75, 76, 77, 78, 79, 80, 81, 82, 83, 84, 85, 86, 87, 88, 89, 90, 91, 92, 93, 94, 95, 96, 97, 98, 99, 100, 101, 102, 103, 104, 105, 106, 107, 108, 109, 110, 111, 112, 113, 114, 115, 116, 117, 118, 119, 120, 121, 122, 123, 124, 125, 126, 127, 128, 129, 130, 131, 132, 133, 134, 135, 136, 137, 138, 139, 140, 141, 142, 143, 144, 145, 146, 147, 148, 149, 150, 151, 152, 153, 154, 155, 156, 157, 158, 159, 160, 161, 162, 163, 164],
      "LargestImagePixelValue": [2220, 2144, 2087, 2102, 2074, 2096, 2088, 2077, 2063, 2090, 2096, 2090, 2097, 2088, 2085, 2085, 2082, 2078, 2094, 2082, 2082, 2074, 2098, 2084, 2067, 2080, 2076, 2072, 2082, 2076, 2081, 2113, 2077, 2077, 2101, 2068, 2117, 2077, 2093, 2108, 2079, 2094, 2083, 2093, 2073, 2104, 2080, 2067, 2083, 2086, 2083, 2105, 2081, 2089, 2079, 2087, 2107, 2072, 2108, 2082, 2079, 2087, 2096, 2106, 2089, 2095, 2091, 2099, 2096, 2086, 2089, 2092, 2105, 2100, 2088, 2088, 2093, 2080, 2093, 2100, 2086, 2114, 2084, 2078, 2099, 2100, 2092, 2095, 2084, 2088, 2098, 2087, 2087, 2084, 2080, 2092, 2076, 2090, 2087, 2089, 2095, 2145, 2099, 2096, 2091, 2099, 2087, 2097, 2112, 2097, 2112, 2103, 2092, 2103, 2084, 2101, 2089, 2085, 2114, 2097, 2107, 2084, 2092, 2101, 2106, 2100, 2098, 2101, 2099, 2100, 2099, 2103, 2091, 2093, 2104, 2099, 2100, 2101, 2094, 2094, 2100, 2096, 2115, 2112, 2104, 2097, 2114, 2104, 2089, 2111, 2090, 2114, 2097, 2102, 2130, 2101, 2113, 2101, 2097, 2091, 2086, 2112, 2105, 2121],
      "WindowCenter": [792.0, 790.0, 789.0, 789.0, 789.0, 790.0, 790.0, 790.0, 790.0, 791.0, 791.0, 791.0, 791.0, 790.0, 791.0, 791.0, 790.0, 790.0, 790.0, 790.0, 790.0, 790.0, 790.0, 790.0, 790.0, 790.0, 791.0, 791.0, 790.0, 789.0, 789.0, 790.0, 790.0, 790.0, 791.0, 790.0, 790.0, 790.0, 791.0, 791.0, 791.0, 791.0, 791.0, 792.0, 792.0, 791.0, 791.0, 791.0, 791.0, 791.0, 792.0, 792.0, 791.0, 791.0, 790.0, 791.0, 791.0, 791.0, 791.0, 791.0, 791.0, 791.0, 790.0, 790.0, 791.0, 791.0, 791.0, 790.0, 791.0, 792.0, 792.0, 791.0, 791.0, 790.0, 791.0, 791.0, 791.0, 791.0, 792.0, 791.0, 791.0, 792.0, 792.0, 791.0, 791.0, 790.0, 790.0, 791.0, 790.0, 790.0, 790.0, 790.0, 791.0, 792.0, 792.0, 792.0, 792.0, 791.0, 791.0, 792.0, 792.0, 792.0, 791.0, 791.0, 792.0, 793.0, 791.0, 791.0, 791.0, 791.0, 791.0, 791.0, 791.0, 791.0, 790.0, 790.0, 790.0, 789.0, 791.0, 792.0, 792.0, 793.0, 792.0, 792.0, 791.0, 792.0, 792.0, 792.0, 791.0, 790.0, 790.0, 790.0, 790.0, 790.0, 791.0, 791.0, 791.0, 791.0, 791.0, 792.0, 792.0, 792.0, 792.0, 792.0, 792.0, 792.0, 791.0, 791.0, 790.0, 790.0, 790.0, 790.0, 791.0, 791.0, 791.0, 791.0, 791.0, 791.0, 791.0, 791.0, 790.0, 790.0, 791.0, 791.0],
      "WindowWidth": [1711.0, 1703.0, 1700.0, 1700.0, 1701.0, 1704.0, 1705.0, 1705.0, 1704.0, 1706.0, 1706.0, 1706.0, 1705.0, 1705.0, 1706.0, 1706.0, 1704.0, 1703.0, 1704.0, 1705.0, 1704.0, 1703.0, 1703.0, 1703.0, 1705.0, 1705.0, 1706.0, 1705.0, 1703.0, 1702.0, 1702.0, 1703.0, 1703.0, 1704.0, 1706.0, 1705.0, 1704.0, 1703.0, 1706.0, 1708.0, 1708.0, 1708.0, 1708.0, 1710.0, 1708.0, 1707.0, 1707.0, 1707.0, 1706.0, 1708.0, 1709.0, 1710.0, 1706.0, 1706.0, 1705.0, 1706.0, 1706.0, 1705.0, 1707.0, 1705.0, 1706.0, 1706.0, 1704.0, 1704.0, 1706.0, 1706.0, 1706.0, 1705.0, 1707.0, 1708.0, 1709.0, 1707.0, 1707.0, 1705.0, 1706.0, 1706.0, 1708.0, 1708.0, 1709.0, 1708.0, 1707.0, 1709.0, 1709.0, 1708.0, 1706.0, 1704.0, 1705.0, 1706.0, 1705.0, 1703.0, 1704.0, 1705.0, 1707.0, 1709.0, 1711.0, 1711.0, 1708.0, 1708.0, 1706.0, 1711.0, 1711.0, 1709.0, 1706.0, 1707.0, 1710.0, 1712.0, 1708.0, 1707.0, 1707.0, 1707.0, 1707.0, 1708.0, 1708.0, 1707.0, 1705.0, 1704.0, 1704.0, 1703.0, 1708.0, 1711.0, 1710.0, 1711.0, 1709.0, 1709.0, 1708.0, 1709.0, 1709.0, 1709.0, 1707.0, 1705.0, 1704.0, 1704.0, 1704.0, 1704.0, 1706.0, 1708.0, 1708.0, 1708.0, 1708.0, 1710.0, 1710.0, 1711.0, 1711.0, 1711.0, 1710.0, 1709.0, 1708.0, 1706.0, 1705.0, 1705.0, 1705.0, 1705.0, 1706.0, 1706.0, 1707.0, 1706.0, 1708.0, 1708.0, 1708.0, 1706.0, 1705.0, 1706.0, 1706.0, 1706.0]
    },
    "slices": {}
  }
}