{
  "AcquisitionMatrixPE": 64,
  "AcquisitionNumber": 1,
  "AcquisitionTime": "12:53:11.930000",
  "BandwidthPerPixelPhaseEncode": 33.967,
  "BaseResolution": 64,
  "CoilCombinationMethod": "Sum of Squares",
  "CoilString": "C:HEA;HEP",
  "ConversionSoftware": "dcm2niix",
  "ConversionSoftwareVersion": "v1.0.20220720",
  "DerivedVendorReportedEchoSpacing": 0.000460005,
  "DeviceSerialNumber": "35193",
  "DwellTime": 3.1e-06,
  "EchoTime": 0.03,
  "EffectiveEchoSpacing": 0.000460005,
  "FlipAngle": 90,
  "HeudiconvVersion": "1.1.6",
  "ImageOrientationPatientDICOM": [0.999604, 0.0139622, -0.0244298, -0.013958, 0.999903, 0.000341127],
  "ImageOrientationText": "Tra>Sag(-1.4)",
  "ImageType": [
    "ORIGINAL",
    "PRIMARY",
    "M",
    "ND",
    "MOSAIC"
],
  "ImagingFrequency": 123.254,
  "InPlanePhaseEncodingDirectionDICOM": "COL",
  "InstitutionAddress": "Xinjiekouwai Street No 19,Beijing,Haidian District,CN,100875",
  "InstitutionName": "Beijing Normal Universtiy/2773C4/",
  "InstitutionalDepartmentName": "Department",
  "MRAcquisitionType": "2D",
  "MagneticFieldStrength": 3,
  "Manufacturer": "Siemens",
  "ManufacturersModelName": "TrioTim",
  "MatrixCoilMode": "SENSE",
  "Modality": "MR",
  "NonlinearGradientCorrection": false,
  "PartialFourier": 1,
  "PatientPosition": "HFS",
  "PercentPhaseFOV": 100,
  "PercentSampling": 100,
  "PhaseEncodingDirection": "j-",
  "PhaseEncodingSteps": 64,
  "PhaseResolution": 1,
  "PixelBandwidth": 2520,
  "ProcedureStepDescription": "BNU_cst_2015^Guo.TaoMei",
  "ProtocolName": "ge_func_3x3x4_164",
  "PulseSequenceDetails": "%SiemensSeq%\\ep2d_bold",
  "ReceiveCoilName": "HeadMatrix",
  "ReconMatrixPE": 64,
  "RepetitionTime": 2,
  "SAR": 0.117235,
  "ScanOptions": "FS",
  "ScanningSequence": "EP",
  "SequenceName": "*epfid2d1_64",
  "SequenceVariant": "SK",
  "SeriesDescription": "ge_func_3x3x4_164",
  "SeriesNumber": 5,
  "ShimSetting": [-4481, -19425, -9908, 1265, 40, -285, 109, -61],
  "SliceThickness": 4,
  "SliceTiming": [0, 1.035, 0.06, 1.095, 0.1225, 1.155, 0.1825, 1.2175, 0.2425, 1.2775, 0.305, 1.3375, 0.365, 1.4, 0.425, 1.46, 0.4875, 1.52, 0.5475, 1.5825, 0.6075, 1.6425, 0.67, 1.7025, 0.73, 1.765, 0.79, 1.825, 0.8525, 1.885, 0.9125, 1.9475, 0.9725],
  "SoftwareVersions": "syngo MR B17",
  "SpacingBetweenSlices": 4.6,
  "StationName": "MRC35193",
  "TaskName": "CognitiveControl",
  "TotalReadoutTime": 0.0289803,
  "TxRefAmp": 322.913,
  "dcmmeta_affine": [
    [-3.123762607574463, -0.04361879825592041, -0.11238802224397659, 109.85778045654297],
    [-0.04363182187080383, 3.124695301055908, -4.079991205996336e-11, -89.39704895019531],
    [-0.0763431191444397, -0.0010660204570740461, 4.598626613616943, -54.90923309326172],
    [0.0, 0.0, 0.0, 1.0]
],
  "dcmmeta_reorient_transform": [
    [0.0, -1.0, 0.0, 63.0],
    [1.0, 0.0, 0.0, 0.0],
    [0.0, 0.0, 1.0, 0.0],
    [0.0, 0.0, 0.0, 1.0]
],
  "dcmmeta_shape": [64, 64, 33, 164],
  "dcmmeta_slice_dim": 2,
  "dcmmeta_version": 0.6,
  "global": {
    "const": {
      "AcquisitionMatrix": [64, 0, 0, 64],
      "AngioFlag": "N",
      "BitsAllocated": 16,
      "BitsStored": 12,
      "Columns": 384,
      "EchoNumbers": 1,
      "EchoTime": 30.0,
      "EchoTrainLength": 1,
      "FlipAngle": 90.0,
      "HighBit": 11,
      "ImageOrientationPatient": [0.99960404283155, 0.01396218282529, -0.0244297974933, -0.013958014971, 0.99990252397459, 0.00034112654178],
      "ImagePositionPatient": [-599.93281324956, -614.39111306995, -42.932055150018],
      "ImageType": [
        "ORIGINAL",
        "PRIMARY",
        "M",
        "ND",
        "MOSAIC"
],
      "ImagedNucleus": "1H",
      "ImagingFrequency": 123.253685,
      "InPlanePhaseEncodingDirection": "COL",
      "MRAcquisitionType": "2D",
      "MagneticFieldStrength": 3.0,
      "Manufacturer": "SIEMENS",
      "ManufacturerModelName": "TrioTim",
      "Modality": "MR",
      "NumberOfAverages": 1.0,
      "NumberOfPhaseEncodingSteps": 64,
      "PercentPhaseFieldOfView": 100.0,
      "PercentSampling": 100.0,
      "PerformedProcedureStepStartTime": "123212.593000",
      "PhotometricInterpretation": "MONOCHROME2",
      "PixelBandwidth": 2520.0,
      "PixelRepresentation": 0,
      "PixelSpacing": [3.125, 3.125],
      "ProtocolName": "ge_func_3x3x4_164",
      "RepetitionTime": 2000.0,
      "Rows": 384,
      "SAR": 0.11723534507453,
      "SamplesPerPixel": 1,
      "ScanOptions": "FS",
      "ScanningSequence": "EP",
      "SequenceName": "*epfid2d1_64",
      "SequenceVariant": "SK",
      "SeriesDescription": "ge_func_3x3x4_164",
      "SeriesNumber": 5,
      "SeriesTime": "125407.062000",
      "SliceLocation": -57.576905405584,
      "SliceThickness": 4.0,
      "SmallestImagePixelValue": 0,
      "SoftwareVersions": "syngo MR B17",
      "SpacingBetweenSlices": 4.5999998801177,
      "SpecificCharacterSet": "ISO_IR 100",
      "StudyID": "1",
      "StudyTime": "123212.531000",
      "TransmitCoilName": "Body",
      "VariableFlipAngleFlag": "N",
      "WindowCenterWidthExplanation": "Algo1",
      "dBdt": 0.0},
    "slices": {}
  },
  "time": {
    "samples": {
      "AcquisitionNumber": [1, 2, 3, 4, 5, 6, 7, 8, 9, 10, 11, 12, 13, 14, 15, 16, 17, 18, 19, 20, 21, 22, 23, 24, 25, 26, 27, 28, 29, 30, 31, 32, 33, 34, 35, 36, 37, 38, 39, 40, 41, 42, 43, 44, 45, 46, 47, 48, 49, 50, 51, 52, 53, 54, 55, 56, 57, 58, 59, 60, 61, 62, 63, 64, 65, 66, 67, 68, 69, 70, 71, 72, 73, 74, 75, 76, 77, 78, 79, 80, 81, 82, 83, 84, 85, 86, 87, 88, 89, 90, 91, 92, 93, 94, 95, 96, 97, 98, 99, 100, 101, 102, 103, 104, 105, 106, 107, 108, 109, 110, 111, 112, 113, 114, 115, 116, 117, 118, 119, 120, 121, 122, 123, 124, 125, 126, 127, 128, 129, 130, 131, 132, 133, 134, 135, 136, 137, 138, 139, 140, 141, 142, 143, 144, 145, 146, 147, 148, 149, 150, 151, 152, 153, 154, 155, 156, 157, 158, 159, 160, 161, 162, 163, 164],
      "AcquisitionTime": ["125311.930000", "125313.937500", "125315.945000", "125317.955000", "125319.962500", "125321.970000", "125323.977500", "125325.985000", "125327.995000", "125330.002500", "125332.010000", "125334.017500", "125336.025000", "125338.035000", "125340.042500", "125342.050000", "125344.057500", "125346.065000", "125348.075000", "125350.082500", "125352.090000", "125354.097500", "125356.107500", "125358.115000", "125400.122500", "125402.130000", "125404.137500", "125406.147500", "125408.155000", "125410.162500", "125412.170000", "125414.177500", "125416.187500", "125418.195000", "125420.202500", "125422.210000", "125424.220000", "125426.227500", "125428.235000", "125430.242500", "125432.250000", "125434.260000", "125436.267500", "125438.275000", "125440.282500", "125442.290000", "125444.300000", "125446.307500", "125448.315000", "125450.322500", "125452.332500", "125454.340000", "125456.347500", "125458.355000", "125500.362500", "125502.372500", "125504.380000", "125506.387500", "125508.395000", "125510.402500", "125512.412500", "125514.420000", "125516.427500", "125518.435000", "125520.445000", "125522.452500", "125524.460000", "125526.467500", "125528.475000", "125530.485000", "125532.492500", "125534.500000", "125536.507500", "125538.515000", "125540.525000", "125542.532500", "125544.540000", "125546.547500", "125548.555000", "125550.565000", "125552.572500", "125554.580000", "125556.587500", "125558.597500", "125600.605000", "125602.612500", "125604.620000", "125606.627500", "125608.637500", "125610.645000", "125612.652500", "125614.660000", "125616.667500", "125618.677500", "125620.685000", "125622.692500", "125624.700000", "125626.710000", "125628.717500", "125630.725000", "125632.732500", "125634.740000", "125636.750000", "125638.757500", "125640.765000", "125642.772500", "125644.780000", "125646.790000", "125648.797500", "125650.805000", "125652.812500", "125654.822500", "125656.830000", "125658.837500", "125700.845000", "125702.852500", "125704.862500", "125706.870000", "125708.877500", "125710.885000", "125712.892500", "125714.902500", "125716.910000", "125718.917500", "125720.925000", "125722.932500", "125724.942500", "125726.950000", "125728.957500", "125730.965000", "125732.975000", "125734.982500", "125736.990000", "125738.997500", "125741.005000", "125743.015000", "125745.022500", "125747.030000", "125749.037500", "125751.045000", "125753.055000", "125755.062500", "125757.070000", "125759.077500", "125801.087500", "125803.095000", "125805.102500", "125807.110000", "125809.117500", "125811.127500", "125813.135000", "125815.142500", "125817.150000", "125819.157500", "125821.167500", "125823.175000", "125825.182500", "125827.190000", "125829.200000", "125831.207500", "125833.215000", "125835.222500", "125837.230000", "125839.240000"],
      "ContentTime": ["125407.062000", "125407.078000", "125407.078000", "125407.078000", "125407.078000", "125407.078000", "125407.078000", "125407.078000", "125407.078000", "125407.093000", "125407.093000", "125407.093000", "125407.093000", "125407.093000", "125407.093000", "125407.109000", "125407.109000", "125407.109000", "125407.109000", "125407.109000", "125407.109000", "125407.109000", "125407.125000", "125407.125000", "125407.125000", "125407.125000", "125407.125000", "125447.062000", "125447.062000", "125447.062000", "125447.062000", "125447.062000", "125447.078000", "125447.078000", "125447.078000", "125447.078000", "125447.078000", "125447.078000", "125447.078000", "125447.093000", "125447.093000", "125447.093000", "125447.093000", "125447.093000", "125447.093000", "125447.109000", "125447.109000", "125527.062000", "125527.062000", "125527.062000", "125527.062000", "125527.078000", "125527.078000", "125527.078000", "125527.078000", "125527.078000", "125527.093000", "125527.093000", "125527.093000", "125527.093000", "125527.093000", "125527.093000", "125527.093000", "125527.093000", "125527.109000", "125527.109000", "125527.109000", "125607.062000", "125607.062000", "125607.078000", "125607.078000", "125607.078000", "125607.078000", "125607.078000", "125607.078000", "125607.078000", "125607.078000", "125607.093000", "125607.093000", "125607.093000", "125607.093000", "125607.093000", "125607.093000", "125607.093000", "125607.093000", "125607.109000", "125607.109000", "125647.062000", "125647.062000", "125647.062000", "125647.062000", "125647.062000", "125647.078000", "125647.078000", "125647.078000", "125647.078000", "125647.078000", "125647.078000", "125647.093000", "125647.093000", "125647.093000", "125647.093000", "125647.093000", "125647.093000", "125647.109000", "125647.109000", "125647.109000", "125727.062000", "125727.062000", "125727.078000", "125727.078000", "125727.078000", "125727.078000", "125727.078000", "125727.078000", "125727.078000", "125727.078000", "125727.093000", "125727.093000", "125727.093000", "125727.093000", "125727.093000", "125727.093000", "125727.093000", "125727.093000", "125727.109000", "125727.109000", "125807.062000", "125807.062000", "125807.062000", "125807.062000", "125807.062000", "125807.078000", "125807.078000", "125807.078000", "125807.078000", "125807.078000", "125807.093000", "125807.093000", "125807.093000", "125807.093000", "125807.093000", "125807.093000", "125807.093000", "125807.109000", "125807.109000", "125807.109000", "125840.703000", "125840.703000", "125840.703000", "125840.703000", "125840.703000", "125840.718000", "125840.718000", "125840.718000", "125840.718000", "125840.718000", "125840.718000", "125840.718000", "125840.718000", "125840.734000", "125840.734000", "125840.734000", "125840.734000"],
      "InstanceCreationTime": ["125407.062000", "125407.078000", "125407.078000", "125407.078000", "125407.078000", "125407.078000", "125407.078000", "125407.078000", "125407.078000", "125407.093000", "125407.093000", "125407.093000", "125407.093000", "125407.093000", "125407.093000", "125407.109000", "125407.109000", "125407.109000", "125407.109000", "125407.109000", "125407.109000", "125407.109000", "125407.125000", "125407.125000", "125407.125000", "125407.125000", "125407.125000", "125447.062000", "125447.062000", "125447.062000", "125447.062000", "125447.062000", "125447.078000", "125447.078000", "125447.078000", "125447.078000", "125447.078000", "125447.078000", "125447.078000", "125447.093000", "125447.093000", "125447.093000", "125447.093000", "125447.093000", "125447.093000", "125447.109000", "125447.109000", "125527.062000", "125527.062000", "125527.062000", "125527.062000", "125527.078000", "125527.078000", "125527.078000", "125527.078000", "125527.078000", "125527.093000", "125527.093000", "125527.093000", "125527.093000", "125527.093000", "125527.093000", "125527.093000", "125527.093000", "125527.109000", "125527.109000", "125527.109000", "125607.062000", "125607.062000", "125607.078000", "125607.078000", "125607.078000", "125607.078000", "125607.078000", "125607.078000", "125607.078000", "125607.078000", "125607.093000", "125607.093000", "125607.093000", "125607.093000", "125607.093000", "125607.093000", "125607.093000", "125607.093000", "125607.109000", "125607.109000", "125647.062000", "125647.062000", "125647.062000", "125647.062000", "125647.062000", "125647.078000", "125647.078000", "125647.078000", "125647.078000", "125647.078000", "125647.078000", "125647.093000", "125647.093000", "125647.093000", "125647.093000", "125647.093000", "125647.093000", "125647.109000", "125647.109000", "125647.109000", "125727.062000", "125727.062000", "125727.078000", "125727.078000", "125727.078000", "125727.078000", "125727.078000", "125727.078000", "125727.078000", "125727.078000", "125727.093000", "125727.093000", "125727.093000", "125727.093000", "125727.093000", "125727.093000", "125727.093000", "125727.093000", "125727.109000", "125727.109000", "125807.062000", "125807.062000", "125807.062000", "125807.062000", "125807.062000", "125807.078000", "125807.078000", "125807.078000", "125807.078000", "125807.078000", "125807.093000", "125807.093000", "125807.093000", "125807.093000", "125807.093000", "125807.093000", "125807.093000", "125807.109000", "125807.109000", "125807.109000", "125840.703000", "125840.703000", "125840.703000", "125840.703000", "125840.703000", "125840.718000", "125840.718000", "125840.718000", "125840.718000", "125840.718000", "125840.718000", "125840.718000", "125840.718000", "125840.734000", "125840.734000", "125840.734000", "125840.734000"],
      "InstanceNumber": [1, 2, 3, 4, 5, 6, 7, 8, 9, 10, 11, 12, 13, 14, 15, 16, 17, 18, 19, 20, 21, 22, 23, 24, 25, 26, 27, 28, 29, 30, 31, 32, 33, 34, 35, 36, 37, 38, 39, 40, 41, 42, 43, 44, 45, 46, 47, 48, 49, 50, 51, 52, 53, 54, 55, 56, 57, 58, 59, 60, 61, 62, 63, 64, 65, 66, 67, 68, 69, 70, 71, 72, 73, 74, 75, 76, 77, 78, 79, 80, 81, 82, 83, 84, 85, 86, 87, 88, 89, 90, 91, 92, 93, 94, 95, 96, 97, 98, 99, 100, 101, 102, 103, 104, 105, 106, 107, 108, 109, 110, 111, 112, 113, 114, 115, 116, 117, 118, 119, 120, 121, 122, 123, 124, 125, 126, 127, 128, 129, 130, 131, 132, 133, 134, 135, 136, 137, 138, 139, 140, 141, 142, 143, 144, 145, 146, 147, 148, 149, 150, 151, 152, 153, 154, 155, 156, 157, 158, 159, 160, 161, 162, 163, 164],
      "LargestImagePixelValue": [2082, 2007, 1981, 1966, 1962, 1929, 1928, 1927, 1949, 1955, 1945, 1932, 1942, 1944, 1927, 1925, 1946, 1925, 1935, 1933, 1947, 1928, 1948, 1957, 1971, 1950, 1953, 1952, 1966, 1957, 1957, 1959, 1945, 1934, 1936, 1944, 1958, 1976, 1953, 1962, 1947, 1939, 1949, 1953, 1951, 1938, 1954, 1969, 1940, 1940, 1937, 1941, 1938, 1948, 1933, 1953, 1948, 1954, 1967, 1971, 1960, 1953, 1948, 1956, 1939, 1959, 1963, 1968, 1952, 1946, 1955, 1941, 1949, 1934, 1954, 1962, 1947, 1935, 1943, 1953, 1967, 1963, 1955, 1934, 1931, 1957, 1972, 1948, 1957, 1951, 1937, 1947, 1962, 1967, 1978, 1958, 1956, 1937, 1955, 1965, 1972, 1975, 1969, 1967, 1977, 1952, 1973, 1972, 1954, 1957, 1969, 1963, 1967, 1945, 1948, 1960, 1956, 1963, 1956, 1970, 1963, 1975, 1972, 1975, 1983, 1976, 1989, 1976, 1991, 2005, 1985, 1993, 1989, 1971, 1977, 1977, 1984, 1963, 1968, 1967, 1971, 1977, 1985, 1971, 1960, 1991, 1969, 1960, 1964, 1950, 1955, 1950, 1959, 1967, 1976, 1962, 1957, 1975, 1975, 1974, 1977, 1976, 1970, 1957],
      "WindowCenter": [714.0, 712.0, 711.0, 710.0, 709.0, 708.0, 708.0, 709.0, 710.0, 710.0, 710.0, 709.0, 709.0, 709.0, 710.0, 710.0, 709.0, 709.0, 709.0, 710.0, 709.0, 708.0, 709.0, 709.0, 709.0, 709.0, 709.0, 709.0, 710.0, 711.0, 711.0, 710.0, 709.0, 709.0, 709.0, 710.0, 711.0, 712.0, 711.0, 710.0, 710.0, 710.0, 709.0, 709.0, 709.0, 709.0, 710.0, 711.0, 712.0, 711.0, 710.0, 710.0, 710.0, 710.0, 711.0, 710.0, 710.0, 711.0, 711.0, 711.0, 711.0, 710.0, 710.0, 709.0, 710.0, 711.0, 712.0, 711.0, 710.0, 709.0, 709.0, 709.0, 709.0, 709.0, 711.0, 710.0, 709.0, 708.0, 708.0, 709.0, 710.0, 709.0, 708.0, 708.0, 708.0, 710.0, 710.0, 710.0, 710.0, 709.0, 709.0, 710.0, 710.0, 711.0, 710.0, 710.0, 710.0, 710.0, 710.0, 711.0, 711.0, 710.0, 710.0, 710.0, 710.0, 710.0, 710.0, 711.0, 711.0, 711.0, 711.0, 710.0, 709.0, 708.0, 708.0, 708.0, 708.0, 708.0, 709.0, 710.0, 710.0, 710.0, 710.0, 710.0, 712.0, 712.0, 711.0, 711.0, 711.0, 712.0, 712.0, 712.0, 712.0, 712.0, 712.0, 713.0, 712.0, 712.0, 712.0, 713.0, 712.0, 712.0, 713.0, 713.0, 712.0, 711.0, 711.0, 711.0, 712.0, 711.0, 709.0, 709.0, 709.0, 710.0, 710.0, 710.0, 710.0, 710.0, 711.0, 711.0, 711.0, 710.0, 711.0, 711.0],
      "WindowWidth": [1573.0, 1565.0, 1562.0, 1559.0, 1557.0, 1555.0, 1554.0, 1555.0, 1559.0, 1560.0, 1559.0, 1557.0, 1556.0, 1557.0, 1558.0, 1558.0, 1557.0, 1555.0, 1558.0, 1558.0, 1556.0, 1554.0, 1556.0, 1558.0, 1556.0, 1557.0, 1556.0, 1557.0, 1560.0, 1562.0, 1561.0, 1559.0, 1558.0, 1556.0, 1558.0, 1561.0, 1564.0, 1566.0, 1562.0, 1560.0, 1559.0, 1558.0, 1556.0, 1556.0, 1557.0, 1558.0, 1560.0, 1563.0, 1565.0, 1563.0, 1560.0, 1559.0, 1558.0, 1561.0, 1561.0, 1560.0, 1559.0, 1562.0, 1563.0, 1562.0, 1561.0, 1559.0, 1558.0, 1556.0, 1559.0, 1564.0, 1565.0, 1562.0, 1559.0, 1556.0, 1555.0, 1556.0, 1556.0, 1558.0, 1561.0, 1559.0, 1556.0, 1554.0, 1553.0, 1558.0, 1558.0, 1557.0, 1554.0, 1554.0, 1554.0, 1558.0, 1560.0, 1559.0, 1558.0, 1557.0, 1556.0, 1558.0, 1560.0, 1562.0, 1560.0, 1558.0, 1558.0, 1558.0, 1558.0, 1561.0, 1562.0, 1560.0, 1558.0, 1559.0, 1558.0, 1558.0, 1560.0, 1562.0, 1562.0, 1562.0, 1561.0, 1558.0, 1555.0, 1553.0, 1554.0, 1555.0, 1553.0, 1554.0, 1557.0, 1559.0, 1558.0, 1559.0, 1559.0, 1561.0, 1564.0, 1564.0, 1563.0, 1562.0, 1564.0, 1565.0, 1566.0, 1566.0, 1566.0, 1566.0, 1566.0, 1567.0, 1566.0, 1565.0, 1565.0, 1567.0, 1566.0, 1565.0, 1567.0, 1568.0, 1567.0, 1563.0, 1561.0, 1563.0, 1564.0, 1562.0, 1557.0, 1556.0, 1556.0, 1558.0, 1560.0, 1558.0, 1559.0, 1560.0, 1562.0, 1562.0, 1561.0, 1560.0, 1562.0, 1561.0]
    },
    "slices": {}
  }
}