{
  "AcquisitionMatrixPE": 64,
  "AcquisitionNumber": 1,
  "AcquisitionTime": "12:58:11.192500",
  "BandwidthPerPixelPhaseEncode": 33.967,
  "BaseResolution": 64,
  "CoilCombinationMethod": "Sum of Squares",
  "CoilString": "C:HEA;HEP",
  "ConversionSoftware": "dcm2niix",
  "ConversionSoftwareVersion": "v1.0.20220720",
  "DerivedVendorReportedEchoSpacing": 0.000460005,
  "DeviceSerialNumber": "35193",
  "DwellTime": 3.1e-06,
  "EchoTime": 0.03,
  "EffectiveEchoSpacing": 0.000460005,
  "FlipAngle": 90,
  "HeudiconvVersion": "1.1.6",
  "ImageOrientationPatientDICOM": [0.999473, -0.0191975, 0.0261721, 0.0191909, 0.999816, 0.00050253],
  "ImageOrientationText": "Tra>Sag(1.5)",
  "ImageType": [
    "ORIGINAL",
    "PRIMARY",
    "M",
    "ND",
    "MOSAIC"
],
  "ImagingFrequency": 123.254,
  "InPlanePhaseEncodingDirectionDICOM": "COL",
  "InstitutionAddress": "Xinjiekouwai Street No 19,Beijing,Haidian District,CN,100875",
  "InstitutionName": "BNU MRI Center",
  "InstitutionalDepartmentName": "Department",
  "MRAcquisitionType": "2D",
  "MagneticFieldStrength": 3,
  "Manufacturer": "Siemens",
  "ManufacturersModelName": "TrioTim",
  "MatrixCoilMode": "SENSE",
  "Modality": "MR",
  "NonlinearGradientCorrection": false,
  "PartialFourier": 1,
  "PatientPosition": "HFS",
  "PercentPhaseFOV": 100,
  "PercentSampling": 100,
  "PhaseEncodingDirection": "j-",
  "PhaseEncodingSteps": 64,
  "PhaseResolution": 1,
  "PixelBandwidth": 2520,
  "ProcedureStepDescription": "BNU_cst_2015^Guo.TaoMei",
  "ProtocolName": "ge_func_3x3x4_164",
  "PulseSequenceDetails": "%SiemensSeq%\\ep2d_bold",
  "ReceiveCoilName": "HeadMatrix",
  "ReconMatrixPE": 64,
  "RepetitionTime": 2,
  "SAR": 0.147237,
  "ScanOptions": "FS",
  "ScanningSequence": "EP",
  "SequenceName": "*epfid2d1_64",
  "SequenceVariant": "SK",
  "SeriesDescription": "ge_func_3x3x4_164",
  "SeriesNumber": 2,
  "ShimSetting": [-4506, -19310, -9813, 1077, -223, -61, 269, 19],
  "SliceThickness": 4,
  "SliceTiming": [0, 1.035, 0.0625, 1.095, 0.1225, 1.1575, 0.1825, 1.2175, 0.245, 1.2775, 0.305, 1.34, 0.365, 1.4, 0.4275, 1.46, 0.4875, 1.5225, 0.5475, 1.5825, 0.61, 1.6425, 0.67, 1.705, 0.73, 1.765, 0.7925, 1.825, 0.8525, 1.8875, 0.9125, 1.9475, 0.975],
  "SoftwareVersions": "syngo MR B17",
  "SpacingBetweenSlices": 4.6,
  "StationName": "MRC35193",
  "TaskName": "LanguageControl",
  "TotalReadoutTime": 0.0289803,
  "TxRefAmp": 344.995,
  "dcmmeta_affine": [
    [-3.1233534812927246, 0.059971537441015244, 0.12041395902633667, 109.65554809570312],
    [0.059992093592882156, 3.1244239807128906, -3.4192839670765807e-09, -94.05400085449219],
    [0.08178789168596268, -0.0015704076504334807, 4.598423480987549, -59.275840759277344],
    [0.0, 0.0, 0.0, 1.0]
],
  "dcmmeta_reorient_transform": [
    [0.0, -1.0, 0.0, 63.0],
    [1.0, 0.0, 0.0, 0.0],
    [0.0, 0.0, 1.0, 0.0],
    [0.0, 0.0, 0.0, 1.0]
],
  "dcmmeta_shape": [64, 64, 33, 164],
  "dcmmeta_slice_dim": 2,
  "dcmmeta_version": 0.6,
  "global": {
    "const": {
      "AcquisitionMatrix": [64, 0, 0, 64],
      "AngioFlag": "N",
      "BitsAllocated": 16,
      "BitsStored": 12,
      "Columns": 384,
      "EchoNumbers": 1,
      "EchoTime": 30.0,
      "EchoTrainLength": 1,
      "FlipAngle": 90.0,
      "HighBit": 11,
      "ImageOrientationPatient": [0.99947309971033, -0.0191974701251, 0.0261721244116, 0.01919089165087, 0.99981571158929, 0.00050253044397],
      "ImagePositionPatient": [-622.76574711164, -593.09383620926, -72.712102636246],
      "ImageType": [
        "ORIGINAL",
        "PRIMARY",
        "M",
        "ND",
        "MOSAIC"
],
      "ImagedNucleus": "1H",
      "ImagingFrequency": 123.253678,
      "InPlanePhaseEncodingDirection": "COL",
      "MRAcquisitionType": "2D",
      "MagneticFieldStrength": 3.0,
      "Manufacturer": "SIEMENS",
      "ManufacturerModelName": "TrioTim",
      "Modality": "MR",
      "NumberOfAverages": 1.0,
      "NumberOfPhaseEncodingSteps": 64,
      "PercentPhaseFieldOfView": 100.0,
      "PercentSampling": 100.0,
      "PerformedProcedureStepStartTime": "125542.640000",
      "PhotometricInterpretation": "MONOCHROME2",
      "PixelBandwidth": 2520.0,
      "PixelRepresentation": 0,
      "PixelSpacing": [3.125, 3.125],
      "ProtocolName": "ge_func_3x3x4_164",
      "RepetitionTime": 2000.0,
      "Rows": 384,
      "SAR": 0.14723665114498,
      "SamplesPerPixel": 1,
      "ScanOptions": "FS",
      "ScanningSequence": "EP",
      "SequenceName": "*epfid2d1_64",
      "SequenceVariant": "SK",
      "SeriesDescription": "ge_func_3x3x4_164",
      "SeriesNumber": 2,
      "SeriesTime": "125859.218000",
      "SliceLocation": -56.385079562002,
      "SliceThickness": 4.0,
      "SmallestImagePixelValue": 0,
      "SoftwareVersions": "syngo MR B17",
      "SpacingBetweenSlices": 4.5999999052582,
      "SpecificCharacterSet": "ISO_IR 100",
      "StudyID": "1",
      "StudyTime": "125542.562000",
      "TransmitCoilName": "Body",
      "VariableFlipAngleFlag": "N",
      "WindowCenterWidthExplanation": "Algo1",
      "dBdt": 0.0},
    "slices": {}
  },
  "time": {
    "samples": {
      "AcquisitionNumber": [1, 2, 3, 4, 5, 6, 7, 8, 9, 10, 11, 12, 13, 14, 15, 16, 17, 18, 19, 20, 21, 22, 23, 24, 25, 26, 27, 28, 29, 30, 31, 32, 33, 34, 35, 36, 37, 38, 39, 40, 41, 42, 43, 44, 45, 46, 47, 48, 49, 50, 51, 52, 53, 54, 55, 56, 57, 58, 59, 60, 61, 62, 63, 64, 65, 66, 67, 68, 69, 70, 71, 72, 73, 74, 75, 76, 77, 78, 79, 80, 81, 82, 83, 84, 85, 86, 87, 88, 89, 90, 91, 92, 93, 94, 95, 96, 97, 98, 99, 100, 101, 102, 103, 104, 105, 106, 107, 108, 109, 110, 111, 112, 113, 114, 115, 116, 117, 118, 119, 120, 121, 122, 123, 124, 125, 126, 127, 128, 129, 130, 131, 132, 133, 134, 135, 136, 137, 138, 139, 140, 141, 142, 143, 144, 145, 146, 147, 148, 149, 150, 151, 152, 153, 154, 155, 156, 157, 158, 159, 160, 161, 162, 163, 164],
      "AcquisitionTime": ["125811.192500", "125813.202500", "125815.210000", "125817.217500", "125819.225000", "125821.235000", "125823.242500", "125825.250000", "125827.257500", "125829.265000", "125831.275000", "125833.282500", "125835.290000", "125837.297500", "125839.305000", "125841.315000", "125843.322500", "125845.330000", "125847.337500", "125849.347500", "125851.355000", "125853.362500", "125855.370000", "125857.377500", "125859.387500", "125901.395000", "125903.402500", "125905.410000", "125907.417500", "125909.427500", "125911.435000", "125913.442500", "125915.450000", "125917.457500", "125919.467500", "125921.475000", "125923.482500", "125925.490000", "125927.500000", "125929.507500", "125931.515000", "125933.522500", "125935.530000", "125937.540000", "125939.547500", "125941.555000", "125943.562500", "125945.570000", "125947.580000", "125949.587500", "125951.595000", "125953.602500", "125955.612500", "125957.620000", "125959.627500", "130001.635000", "130003.642500", "130005.652500", "130007.660000", "130009.667500", "130011.675000", "130013.682500", "130015.692500", "130017.700000", "130019.707500", "130021.715000", "130023.725000", "130025.732500", "130027.740000", "130029.747500", "130031.755000", "130033.765000", "130035.772500", "130037.780000", "130039.787500", "130041.795000", "130043.805000", "130045.812500", "130047.820000", "130049.827500", "130051.837500", "130053.845000", "130055.852500", "130057.860000", "130059.867500", "130101.877500", "130103.885000", "130105.892500", "130107.900000", "130109.907500", "130111.917500", "130113.925000", "130115.932500", "130117.940000", "130119.947500", "130121.957500", "130123.965000", "130125.972500", "130127.980000", "130129.990000", "130131.997500", "130134.005000", "130136.012500", "130138.020000", "130140.030000", "130142.037500", "130144.045000", "130146.052500", "130148.060000", "130150.070000", "130152.077500", "130154.085000", "130156.092500", "130158.102500", "130200.110000", "130202.117500", "130204.125000", "130206.132500", "130208.142500", "130210.150000", "130212.157500", "130214.165000", "130216.172500", "130218.182500", "130220.190000", "130222.197500", "130224.205000", "130226.215000", "130228.222500", "130230.230000", "130232.237500", "130234.245000", "130236.255000", "130238.262500", "130240.270000", "130242.277500", "130244.285000", "130246.295000", "130248.302500", "130250.310000", "130252.317500", "130254.325000", "130256.335000", "130258.342500", "130300.350000", "130302.357500", "130304.367500", "130306.375000", "130308.382500", "130310.390000", "130312.397500", "130314.407500", "130316.415000", "130318.422500", "130320.430000", "130322.437500", "130324.447500", "130326.455000", "130328.462500", "130330.470000", "130332.480000", "130334.487500", "130336.495000", "130338.502500"],
      "ContentTime": ["125859.218000", "125859.218000", "125859.218000", "125859.218000", "125859.234000", "125859.234000", "125859.234000", "125859.234000", "125859.250000", "125859.250000", "125859.250000", "125859.250000", "125859.250000", "125859.250000", "125859.250000", "125859.265000", "125859.265000", "125859.265000", "125859.265000", "125859.265000", "125859.265000", "125859.281000", "125859.281000", "125939.218000", "125939.218000", "125939.218000", "125939.218000", "125939.234000", "125939.234000", "125939.234000", "125939.234000", "125939.234000", "125939.250000", "125939.250000", "125939.250000", "125939.250000", "125939.250000", "125939.250000", "125939.250000", "125939.265000", "125939.265000", "125939.265000", "125939.265000", "125959.218000", "125959.218000", "125959.218000", "125959.218000", "125959.218000", "125959.218000", "125959.234000", "125959.234000", "125959.234000", "125959.234000", "130039.218000", "130039.218000", "130039.218000", "130039.218000", "130039.218000", "130039.218000", "130039.218000", "130039.218000", "130039.234000", "130039.234000", "130039.234000", "130039.234000", "130039.234000", "130039.234000", "130039.234000", "130039.234000", "130039.250000", "130039.250000", "130039.250000", "130039.265000", "130119.218000", "130119.218000", "130119.218000", "130119.234000", "130119.234000", "130119.234000", "130119.234000", "130119.234000", "130119.234000", "130119.250000", "130119.250000", "130119.250000", "130119.250000", "130119.250000", "130119.250000", "130119.265000", "130119.265000", "130119.265000", "130119.265000", "130119.265000", "130159.218000", "130159.218000", "130159.218000", "130159.218000", "130159.218000", "130159.218000", "130159.218000", "130159.218000", "130159.234000", "130159.234000", "130159.234000", "130159.234000", "130159.234000", "130159.250000", "130159.250000", "130159.250000", "130159.250000", "130159.250000", "130159.250000", "130159.250000", "130239.218000", "130239.218000", "130239.218000", "130239.218000", "130239.218000", "130239.218000", "130239.218000", "130239.218000", "130239.234000", "130239.234000", "130239.234000", "130239.234000", "130239.234000", "130239.234000", "130239.234000", "130239.234000", "130239.250000", "130239.250000", "130239.250000", "130239.250000", "130319.218000", "130319.218000", "130319.218000", "130319.218000", "130319.218000", "130319.218000", "130319.218000", "130319.218000", "130319.234000", "130319.234000", "130319.234000", "130319.234000", "130319.234000", "130319.234000", "130319.234000", "130319.234000", "130319.250000", "130319.250000", "130319.250000", "130319.250000", "130340.562000", "130340.578000", "130340.578000", "130340.578000", "130340.578000", "130340.593000", "130340.593000", "130340.593000", "130340.593000", "130340.593000", "130340.609000"],
      "InstanceCreationTime": ["125859.218000", "125859.218000", "125859.218000", "125859.218000", "125859.234000", "125859.234000", "125859.234000", "125859.234000", "125859.250000", "125859.250000", "125859.250000", "125859.250000", "125859.250000", "125859.250000", "125859.250000", "125859.265000", "125859.265000", "125859.265000", "125859.265000", "125859.265000", "125859.265000", "125859.281000", "125859.281000", "125939.218000", "125939.218000", "125939.218000", "125939.218000", "125939.234000", "125939.234000", "125939.234000", "125939.234000", "125939.234000", "125939.250000", "125939.250000", "125939.250000", "125939.250000", "125939.250000", "125939.250000", "125939.250000", "125939.265000", "125939.265000", "125939.265000", "125939.265000", "125959.218000", "125959.218000", "125959.218000", "125959.218000", "125959.218000", "125959.218000", "125959.234000", "125959.234000", "125959.234000", "125959.234000", "130039.218000", "130039.218000", "130039.218000", "130039.218000", "130039.218000", "130039.218000", "130039.218000", "130039.218000", "130039.234000", "130039.234000", "130039.234000", "130039.234000", "130039.234000", "130039.234000", "130039.234000", "130039.234000", "130039.250000", "130039.250000", "130039.250000", "130039.265000", "130119.218000", "130119.218000", "130119.218000", "130119.234000", "130119.234000", "130119.234000", "130119.234000", "130119.234000", "130119.234000", "130119.250000", "130119.250000", "130119.250000", "130119.250000", "130119.250000", "130119.250000", "130119.265000", "130119.265000", "130119.265000", "130119.265000", "130119.265000", "130159.218000", "130159.218000", "130159.218000", "130159.218000", "130159.218000", "130159.218000", "130159.218000", "130159.218000", "130159.234000", "130159.234000", "130159.234000", "130159.234000", "130159.234000", "130159.250000", "130159.250000", "130159.250000", "130159.250000", "130159.250000", "130159.250000", "130159.250000", "130239.218000", "130239.218000", "130239.218000", "130239.218000", "130239.218000", "130239.218000", "130239.218000", "130239.218000", "130239.234000", "130239.234000", "130239.234000", "130239.234000", "130239.234000", "130239.234000", "130239.234000", "130239.234000", "130239.250000", "130239.250000", "130239.250000", "130239.250000", "130319.218000", "130319.218000", "130319.218000", "130319.218000", "130319.218000", "130319.218000", "130319.218000", "130319.218000", "130319.234000", "130319.234000", "130319.234000", "130319.234000", "130319.234000", "130319.234000", "130319.234000", "130319.234000", "130319.250000", "130319.250000", "130319.250000", "130319.250000", "130340.562000", "130340.578000", "130340.578000", "130340.578000", "130340.578000", "130340.593000", "130340.593000", "130340.593000", "130340.593000", "130340.593000", "130340.609000"],
      "InstanceNumber": [1, 2, 3, 4, 5, 6, 7, 8, 9, 10, 11, 12, 13, 14, 15, 16, 17, 18, 19, 20, 21, 22, 23, 24, 25, 26, 27, 28, 29, 30, 31, 32, 33, 34, 35, 36, 37, 38, 39, 40, 41, 42, 43, 44, 45, 46, 47, 48, 49, 50, 51, 52, 53, 54, 55, 56, 57, 58, 59, 60, 61, 62, 63, 64, 65, 66, 67, 68, 69, 70, 71, 72, 73, 74, 75, 76, 77, 78, 79, 80, 81, 82, 83, 84, 85, 86, 87, 88, 89, 90, 91, 92, 93, 94, 95, 96, 97, 98, 99, 100, 101, 102, 103, 104, 105, 106, 107, 108, 109, 110, 111, 112, 113, 114, 115, 116, 117, 118, 119, 120, 121, 122, 123, 124, 125, 126, 127, 128, 129, 130, 131, 132, 133, 134, 135, 136, 137, 138, 139, 140, 141, 142, 143, 144, 145, 146, 147, 148, 149, 150, 151, 152, 153, 154, 155, 156, 157, 158, 159, 160, 161, 162, 163, 164],
      "LargestImagePixelValue": [1935, 1897, 1912, 1855, 1858, 1872, 1855, 1849, 1858, 1863, 1862, 1870, 1876, 1880, 1879, 1871, 1883, 1875, 1882, 1887, 1879, 1890, 1899, 1883, 1888, 1884, 1866, 1871, 1853, 1890, 1872, 1872, 1865, 1844, 1871, 1865, 1860, 1840, 1842, 1848, 1843, 1872, 1871, 1858, 1848, 1864, 1896, 1876, 1869, 1883, 1864, 1870, 1896, 1897, 1877, 1879, 1851, 1874, 1863, 1853, 1892, 1862, 1893, 1871, 1849, 1868, 1864, 1863, 1849, 1893, 1880, 1849, 1861, 1863, 1872, 1864, 1859, 1867, 1842, 1850, 1878, 1864, 1876, 1869, 1845, 1891, 1882, 1855, 1863, 1873, 1866, 1870, 1873, 1874, 1852, 1834, 1873, 1870, 1882, 1876, 1881, 1854, 1887, 1869, 1863, 1880, 1889, 1869, 1871, 1870, 1880, 1889, 1866, 1859, 1866, 1882, 1888, 1884, 1878, 1871, 1856, 1867, 1867, 1868, 1869, 1866, 1868, 1863, 1866, 1862, 1853, 1856, 1853, 1863, 1860, 1848, 1866, 1861, 1858, 1854, 1832, 1838, 1869, 1852, 1846, 1848, 1860, 1848, 1849, 1847, 1875, 1840, 1855, 1856, 1848, 1848, 1845, 1864, 1872, 1845, 1844, 1875, 1859, 1862],
      "WindowCenter": [772.0, 769.0, 769.0, 769.0, 768.0, 767.0, 768.0, 767.0, 767.0, 768.0, 768.0, 768.0, 768.0, 768.0, 768.0, 769.0, 769.0, 769.0, 770.0, 770.0, 770.0, 770.0, 770.0, 770.0, 769.0, 769.0, 768.0, 768.0, 768.0, 768.0, 768.0, 766.0, 767.0, 766.0, 766.0, 767.0, 767.0, 767.0, 767.0, 766.0, 767.0, 767.0, 768.0, 767.0, 767.0, 767.0, 768.0, 768.0, 768.0, 768.0, 768.0, 768.0, 768.0, 768.0, 769.0, 769.0, 768.0, 767.0, 768.0, 768.0, 768.0, 769.0, 768.0, 768.0, 768.0, 767.0, 767.0, 767.0, 768.0, 768.0, 768.0, 768.0, 767.0, 767.0, 767.0, 766.0, 766.0, 766.0, 767.0, 768.0, 770.0, 768.0, 769.0, 767.0, 767.0, 767.0, 768.0, 768.0, 769.0, 768.0, 767.0, 768.0, 768.0, 768.0, 767.0, 767.0, 768.0, 768.0, 768.0, 768.0, 767.0, 767.0, 768.0, 768.0, 768.0, 769.0, 770.0, 769.0, 768.0, 768.0, 768.0, 768.0, 768.0, 769.0, 769.0, 770.0, 770.0, 770.0, 770.0, 769.0, 769.0, 768.0, 768.0, 768.0, 768.0, 767.0, 768.0, 768.0, 769.0, 768.0, 767.0, 767.0, 767.0, 768.0, 767.0, 767.0, 768.0, 767.0, 767.0, 767.0, 766.0, 767.0, 767.0, 767.0, 767.0, 767.0, 767.0, 767.0, 767.0, 768.0, 768.0, 768.0, 768.0, 768.0, 768.0, 767.0, 768.0, 768.0, 768.0, 767.0, 768.0, 769.0, 769.0, 769.0],
      "WindowWidth": [1690.0, 1681.0, 1682.0, 1679.0, 1676.0, 1676.0, 1677.0, 1676.0, 1676.0, 1677.0, 1678.0, 1678.0, 1677.0, 1678.0, 1679.0, 1682.0, 1682.0, 1682.0, 1683.0, 1684.0, 1683.0, 1683.0, 1684.0, 1685.0, 1682.0, 1681.0, 1679.0, 1678.0, 1680.0, 1680.0, 1677.0, 1674.0, 1674.0, 1672.0, 1672.0, 1676.0, 1677.0, 1675.0, 1675.0, 1673.0, 1675.0, 1675.0, 1678.0, 1676.0, 1674.0, 1675.0, 1678.0, 1678.0, 1677.0, 1679.0, 1678.0, 1679.0, 1679.0, 1678.0, 1681.0, 1680.0, 1678.0, 1677.0, 1677.0, 1679.0, 1680.0, 1680.0, 1678.0, 1679.0, 1677.0, 1676.0, 1675.0, 1676.0, 1678.0, 1679.0, 1679.0, 1676.0, 1675.0, 1673.0, 1676.0, 1673.0, 1672.0, 1672.0, 1674.0, 1679.0, 1683.0, 1679.0, 1679.0, 1675.0, 1675.0, 1676.0, 1677.0, 1678.0, 1680.0, 1677.0, 1675.0, 1676.0, 1677.0, 1676.0, 1675.0, 1674.0, 1678.0, 1678.0, 1678.0, 1678.0, 1676.0, 1676.0, 1677.0, 1678.0, 1678.0, 1681.0, 1682.0, 1681.0, 1678.0, 1678.0, 1678.0, 1678.0, 1676.0, 1680.0, 1681.0, 1682.0, 1682.0, 1683.0, 1682.0, 1680.0, 1682.0, 1678.0, 1677.0, 1677.0, 1676.0, 1675.0, 1677.0, 1677.0, 1681.0, 1678.0, 1675.0, 1677.0, 1676.0, 1677.0, 1676.0, 1675.0, 1677.0, 1676.0, 1677.0, 1675.0, 1673.0, 1675.0, 1677.0, 1675.0, 1674.0, 1674.0, 1675.0, 1674.0, 1675.0, 1678.0, 1680.0, 1678.0, 1679.0, 1678.0, 1678.0, 1676.0, 1677.0, 1677.0, 1677.0, 1676.0, 1677.0, 1680.0, 1680.0, 1680.0]
    },
    "slices": {}
  }
}