{
  "AcquisitionMatrixPE": 64,
  "AcquisitionNumber": 1,
  "AcquisitionTime": "13:18:41.095000",
  "BandwidthPerPixelPhaseEncode": 33.967,
  "BaseResolution": 64,
  "CoilCombinationMethod": "Sum of Squares",
  "CoilString": "C:HEA;HEP",
  "ConversionSoftware": "dcm2niix",
  "ConversionSoftwareVersion": "v1.0.20220720",
  "DerivedVendorReportedEchoSpacing": 0.000460005,
  "DeviceSerialNumber": "35193",
  "DwellTime": 3.1e-06,
  "EchoTime": 0.03,
  "EffectiveEchoSpacing": 0.000460005,
  "FlipAngle": 90,
  "HeudiconvVersion": "1.1.6",
  "ImageOrientationPatientDICOM": [0.999473, -0.0191975, 0.0261721, 0.0191909, 0.999816, 0.00050253],
  "ImageOrientationText": "Tra>Sag(1.5)",
  "ImageType": [
    "ORIGINAL",
    "PRIMARY",
    "M",
    "ND",
    "MOSAIC"
],
  "ImagingFrequency": 123.254,
  "InPlanePhaseEncodingDirectionDICOM": "COL",
  "InstitutionAddress": "Xinjiekouwai Street No 19,Beijing,Haidian District,CN,100875",
  "InstitutionName": "BNU MRI Center",
  "InstitutionalDepartmentName": "Department",
  "MRAcquisitionType": "2D",
  "MagneticFieldStrength": 3,
  "Manufacturer": "Siemens",
  "ManufacturersModelName": "TrioTim",
  "MatrixCoilMode": "SENSE",
  "Modality": "MR",
  "NonlinearGradientCorrection": false,
  "PartialFourier": 1,
  "PatientPosition": "HFS",
  "PercentPhaseFOV": 100,
  "PercentSampling": 100,
  "PhaseEncodingDirection": "j-",
  "PhaseEncodingSteps": 64,
  "PhaseResolution": 1,
  "PixelBandwidth": 2520,
  "ProcedureStepDescription": "BNU_cst_2015^Guo.TaoMei",
  "ProtocolName": "ge_func_3x3x4_164",
  "PulseSequenceDetails": "%SiemensSeq%\\ep2d_bold",
  "ReceiveCoilName": "HeadMatrix",
  "ReconMatrixPE": 64,
  "RepetitionTime": 2,
  "SAR": 0.147237,
  "ScanOptions": "FS",
  "ScanningSequence": "EP",
  "SequenceName": "*epfid2d1_64",
  "SequenceVariant": "SK",
  "SeriesDescription": "ge_func_3x3x4_164",
  "SeriesNumber": 5,
  "ShimSetting": [-4506, -19310, -9813, 1077, -223, -61, 269, 19],
  "SliceThickness": 4,
  "SliceTiming": [0, 1.035, 0.06, 1.095, 0.1225, 1.155, 0.1825, 1.2175, 0.2425, 1.2775, 0.305, 1.3375, 0.365, 1.4, 0.425, 1.46, 0.4875, 1.52, 0.5475, 1.5825, 0.6075, 1.6425, 0.67, 1.7025, 0.73, 1.765, 0.79, 1.825, 0.8525, 1.885, 0.9125, 1.9475, 0.9725],
  "SoftwareVersions": "syngo MR B17",
  "SpacingBetweenSlices": 4.6,
  "StationName": "MRC35193",
  "TaskName": "CognitiveControl",
  "TotalReadoutTime": 0.0289803,
  "TxRefAmp": 344.995,
  "dcmmeta_affine": [
    [-3.1233534812927246, 0.059971537441015244, 0.12041395902633667, 109.65554809570312],
    [0.059992093592882156, 3.1244239807128906, -3.4192839670765807e-09, -94.05400085449219],
    [0.08178789168596268, -0.0015704076504334807, 4.598423480987549, -59.275840759277344],
    [0.0, 0.0, 0.0, 1.0]
],
  "dcmmeta_reorient_transform": [
    [0.0, -1.0, 0.0, 63.0],
    [1.0, 0.0, 0.0, 0.0],
    [0.0, 0.0, 1.0, 0.0],
    [0.0, 0.0, 0.0, 1.0]
],
  "dcmmeta_shape": [64, 64, 33, 164],
  "dcmmeta_slice_dim": 2,
  "dcmmeta_version": 0.6,
  "global": {
    "const": {
      "AcquisitionMatrix": [64, 0, 0, 64],
      "AngioFlag": "N",
      "BitsAllocated": 16,
      "BitsStored": 12,
      "Columns": 384,
      "EchoNumbers": 1,
      "EchoTime": 30.0,
      "EchoTrainLength": 1,
      "FlipAngle": 90.0,
      "HighBit": 11,
      "ImageOrientationPatient": [0.99947309971033, -0.0191974701251, 0.0261721244116, 0.01919089165087, 0.99981571158929, 0.00050253044397],
      "ImagePositionPatient": [-622.76574711164, -593.09383620926, -72.712102636246],
      "ImageType": [
        "ORIGINAL",
        "PRIMARY",
        "M",
        "ND",
        "MOSAIC"
],
      "ImagedNucleus": "1H",
      "ImagingFrequency": 123.253684,
      "InPlanePhaseEncodingDirection": "COL",
      "MRAcquisitionType": "2D",
      "MagneticFieldStrength": 3.0,
      "Manufacturer": "SIEMENS",
      "ManufacturerModelName": "TrioTim",
      "Modality": "MR",
      "NumberOfAverages": 1.0,
      "NumberOfPhaseEncodingSteps": 64,
      "PercentPhaseFieldOfView": 100.0,
      "PercentSampling": 100.0,
      "PerformedProcedureStepStartTime": "125542.640000",
      "PhotometricInterpretation": "MONOCHROME2",
      "PixelBandwidth": 2520.0,
      "PixelRepresentation": 0,
      "PixelSpacing": [3.125, 3.125],
      "ProtocolName": "ge_func_3x3x4_164",
      "RepetitionTime": 2000.0,
      "Rows": 384,
      "SAR": 0.14723665114498,
      "SamplesPerPixel": 1,
      "ScanOptions": "FS",
      "ScanningSequence": "EP",
      "SequenceName": "*epfid2d1_64",
      "SequenceVariant": "SK",
      "SeriesDescription": "ge_func_3x3x4_164",
      "SeriesNumber": 5,
      "SeriesTime": "131939.218000",
      "SliceLocation": -56.385079562002,
      "SliceThickness": 4.0,
      "SmallestImagePixelValue": 0,
      "SoftwareVersions": "syngo MR B17",
      "SpacingBetweenSlices": 4.5999999052582,
      "SpecificCharacterSet": "ISO_IR 100",
      "StudyID": "1",
      "StudyTime": "125542.562000",
      "TransmitCoilName": "Body",
      "VariableFlipAngleFlag": "N",
      "WindowCenterWidthExplanation": "Algo1",
      "dBdt": 0.0},
    "slices": {}
  },
  "time": {
    "samples": {
      "AcquisitionNumber": [1, 2, 3, 4, 5, 6, 7, 8, 9, 10, 11, 12, 13, 14, 15, 16, 17, 18, 19, 20, 21, 22, 23, 24, 25, 26, 27, 28, 29, 30, 31, 32, 33, 34, 35, 36, 37, 38, 39, 40, 41, 42, 43, 44, 45, 46, 47, 48, 49, 50, 51, 52, 53, 54, 55, 56, 57, 58, 59, 60, 61, 62, 63, 64, 65, 66, 67, 68, 69, 70, 71, 72, 73, 74, 75, 76, 77, 78, 79, 80, 81, 82, 83, 84, 85, 86, 87, 88, 89, 90, 91, 92, 93, 94, 95, 96, 97, 98, 99, 100, 101, 102, 103, 104, 105, 106, 107, 108, 109, 110, 111, 112, 113, 114, 115, 116, 117, 118, 119, 120, 121, 122, 123, 124, 125, 126, 127, 128, 129, 130, 131, 132, 133, 134, 135, 136, 137, 138, 139, 140, 141, 142, 143, 144, 145, 146, 147, 148, 149, 150, 151, 152, 153, 154, 155, 156, 157, 158, 159, 160, 161, 162, 163, 164],
      "AcquisitionTime": ["131841.095000", "131843.102500", "131845.110000", "131847.120000", "131849.127500", "131851.135000", "131853.142500", "131855.150000", "131857.160000", "131859.167500", "131901.175000", "131903.182500", "131905.190000", "131907.200000", "131909.207500", "131911.215000", "131913.222500", "131915.232500", "131917.240000", "131919.247500", "131921.255000", "131923.262500", "131925.272500", "131927.280000", "131929.287500", "131931.295000", "131933.302500", "131935.312500", "131937.320000", "131939.327500", "131941.335000", "131943.342500", "131945.352500", "131947.360000", "131949.367500", "131951.375000", "131953.385000", "131955.392500", "131957.400000", "131959.407500", "132001.415000", "132003.425000", "132005.432500", "132007.440000", "132009.447500", "132011.455000", "132013.465000", "132015.472500", "132017.480000", "132019.487500", "132021.497500", "132023.505000", "132025.512500", "132027.520000", "132029.527500", "132031.537500", "132033.545000", "132035.552500", "132037.560000", "132039.567500", "132041.577500", "132043.585000", "132045.592500", "132047.600000", "132049.610000", "132051.617500", "132053.625000", "132055.632500", "132057.640000", "132059.650000", "132101.657500", "132103.665000", "132105.672500", "132107.680000", "132109.690000", "132111.697500", "132113.705000", "132115.712500", "132117.720000", "132119.730000", "132121.737500", "132123.745000", "132125.752500", "132127.762500", "132129.770000", "132131.777500", "132133.785000", "132135.792500", "132137.802500", "132139.810000", "132141.817500", "132143.825000", "132145.832500", "132147.842500", "132149.850000", "132151.857500", "132153.865000", "132155.875000", "132157.882500", "132159.890000", "132201.897500", "132203.905000", "132205.915000", "132207.922500", "132209.930000", "132211.937500", "132213.945000", "132215.955000", "132217.962500", "132219.970000", "132221.977500", "132223.987500", "132225.995000", "132228.002500", "132230.010000", "132232.017500", "132234.027500", "132236.035000", "132238.042500", "132240.050000", "132242.057500", "132244.067500", "132246.075000", "132248.082500", "132250.090000", "132252.097500", "132254.107500", "132256.115000", "132258.122500", "132300.130000", "132302.140000", "132304.147500", "132306.155000", "132308.162500", "132310.170000", "132312.180000", "132314.187500", "132316.195000", "132318.202500", "132320.210000", "132322.220000", "132324.227500", "132326.235000", "132328.242500", "132330.252500", "132332.260000", "132334.267500", "132336.275000", "132338.282500", "132340.292500", "132342.300000", "132344.307500", "132346.315000", "132348.322500", "132350.332500", "132352.340000", "132354.347500", "132356.355000", "132358.365000", "132400.372500", "132402.380000", "132404.387500", "132406.395000", "132408.405000"],
      "ContentTime": ["131939.218000", "131939.218000", "131939.218000", "131939.218000", "131939.234000", "131939.234000", "131939.234000", "131939.234000", "131939.234000", "131939.234000", "131939.234000", "131939.250000", "131939.250000", "131939.250000", "131939.250000", "131939.250000", "131939.265000", "131939.265000", "131939.265000", "131939.281000", "131939.281000", "131939.281000", "131939.281000", "131939.281000", "131939.281000", "131939.281000", "131939.296000", "131939.296000", "131959.218000", "131959.218000", "131959.218000", "131959.218000", "131959.218000", "131959.218000", "131959.218000", "131959.218000", "131959.234000", "131959.234000", "132039.218000", "132039.218000", "132039.218000", "132039.218000", "132039.218000", "132039.218000", "132039.218000", "132039.218000", "132039.234000", "132039.234000", "132039.234000", "132039.234000", "132039.234000", "132039.234000", "132039.234000", "132039.234000", "132039.250000", "132039.250000", "132039.250000", "132039.250000", "132119.218000", "132119.218000", "132119.218000", "132119.218000", "132119.234000", "132119.234000", "132119.234000", "132119.234000", "132119.250000", "132119.250000", "132119.250000", "132119.250000", "132119.250000", "132119.250000", "132119.250000", "132119.250000", "132119.265000", "132119.265000", "132119.265000", "132119.265000", "132159.218000", "132159.218000", "132159.218000", "132159.218000", "132159.234000", "132159.234000", "132159.234000", "132159.234000", "132159.234000", "132159.250000", "132159.250000", "132159.250000", "132159.250000", "132159.250000", "132159.250000", "132159.250000", "132159.250000", "132159.265000", "132159.265000", "132159.265000", "132239.218000", "132239.218000", "132239.218000", "132239.218000", "132239.218000", "132239.218000", "132239.234000", "132239.234000", "132239.250000", "132239.250000", "132239.250000", "132239.250000", "132239.250000", "132239.250000", "132239.250000", "132239.250000", "132239.265000", "132239.265000", "132239.265000", "132239.265000", "132319.218000", "132319.218000", "132319.218000", "132319.218000", "132319.218000", "132319.218000", "132319.218000", "132319.218000", "132319.234000", "132319.234000", "132319.234000", "132319.234000", "132319.234000", "132319.234000", "132319.234000", "132319.250000", "132319.250000", "132319.250000", "132319.250000", "132319.250000", "132359.218000", "132359.218000", "132359.218000", "132359.218000", "132359.218000", "132359.218000", "132359.218000", "132359.218000", "132359.234000", "132359.234000", "132359.234000", "132359.234000", "132359.234000", "132359.234000", "132359.250000", "132359.250000", "132359.250000", "132359.250000", "132359.250000", "132359.250000", "132410.093000", "132410.093000", "132410.093000", "132410.093000", "132410.109000", "132410.109000"],
      "InstanceCreationTime": ["131939.218000", "131939.218000", "131939.218000", "131939.218000", "131939.234000", "131939.234000", "131939.234000", "131939.234000", "131939.234000", "131939.234000", "131939.234000", "131939.250000", "131939.250000", "131939.250000", "131939.250000", "131939.250000", "131939.265000", "131939.265000", "131939.265000", "131939.281000", "131939.281000", "131939.281000", "131939.281000", "131939.281000", "131939.281000", "131939.281000", "131939.296000", "131939.296000", "131959.218000", "131959.218000", "131959.218000", "131959.218000", "131959.218000", "131959.218000", "131959.218000", "131959.218000", "131959.234000", "131959.234000", "132039.218000", "132039.218000", "132039.218000", "132039.218000", "132039.218000", "132039.218000", "132039.218000", "132039.218000", "132039.234000", "132039.234000", "132039.234000", "132039.234000", "132039.234000", "132039.234000", "132039.234000", "132039.234000", "132039.250000", "132039.250000", "132039.250000", "132039.250000", "132119.218000", "132119.218000", "132119.218000", "132119.218000", "132119.234000", "132119.234000", "132119.234000", "132119.234000", "132119.250000", "132119.250000", "132119.250000", "132119.250000", "132119.250000", "132119.250000", "132119.250000", "132119.250000", "132119.265000", "132119.265000", "132119.265000", "132119.265000", "132159.218000", "132159.218000", "132159.218000", "132159.218000", "132159.234000", "132159.234000", "132159.234000", "132159.234000", "132159.234000", "132159.250000", "132159.250000", "132159.250000", "132159.250000", "132159.250000", "132159.250000", "132159.250000", "132159.250000", "132159.265000", "132159.265000", "132159.265000", "132239.218000", "132239.218000", "132239.218000", "132239.218000", "132239.218000", "132239.218000", "132239.234000", "132239.234000", "132239.250000", "132239.250000", "132239.250000", "132239.250000", "132239.250000", "132239.250000", "132239.250000", "132239.250000", "132239.265000", "132239.265000", "132239.265000", "132239.265000", "132319.218000", "132319.218000", "132319.218000", "132319.218000", "132319.218000", "132319.218000", "132319.218000", "132319.218000", "132319.234000", "132319.234000", "132319.234000", "132319.234000", "132319.234000", "132319.234000", "132319.234000", "132319.250000", "132319.250000", "132319.250000", "132319.250000", "132319.250000", "132359.218000", "132359.218000", "132359.218000", "132359.218000", "132359.218000", "132359.218000", "132359.218000", "132359.218000", "132359.234000", "132359.234000", "132359.234000", "132359.234000", "132359.234000", "132359.234000", "132359.250000", "132359.250000", "132359.250000", "132359.250000", "132359.250000", "132359.250000", "132410.093000", "132410.093000", "132410.093000", "132410.093000", "132410.109000", "132410.109000"],
      "InstanceNumber": [1, 2, 3, 4, 5, 6, 7, 8, 9, 10, 11, 12, 13, 14, 15, 16, 17, 18, 19, 20, 21, 22, 23, 24, 25, 26, 27, 28, 29, 30, 31, 32, 33, 34, 35, 36, 37, 38, 39, 40, 41, 42, 43, 44, 45, 46, 47, 48, 49, 50, 51, 52, 53, 54, 55, 56, 57, 58, 59, 60, 61, 62, 63, 64, 65, 66, 67, 68, 69, 70, 71, 72, 73, 74, 75, 76, 77, 78, 79, 80, 81, 82, 83, 84, 85, 86, 87, 88, 89, 90, 91, 92, 93, 94, 95, 96, 97, 98, 99, 100, 101, 102, 103, 104, 105, 106, 107, 108, 109, 110, 111, 112, 113, 114, 115, 116, 117, 118, 119, 120, 121, 122, 123, 124, 125, 126, 127, 128, 129, 130, 131, 132, 133, 134, 135, 136, 137, 138, 139, 140, 141, 142, 143, 144, 145, 146, 147, 148, 149, 150, 151, 152, 153, 154, 155, 156, 157, 158, 159, 160, 161, 162, 163, 164],
      "LargestImagePixelValue": [1941, 1905, 1856, 1853, 1817, 1850, 1843, 1861, 1826, 1844, 1842, 1857, 1830, 1851, 1847, 1859, 1816, 1833, 1832, 1840, 1826, 1832, 1825, 1825, 1853, 1831, 1824, 1833, 1839, 1862, 1825, 1843, 1844, 1851, 1848, 1839, 1848, 1841, 1828, 1843, 1838, 1871, 1820, 1863, 1862, 1879, 1875, 1829, 1846, 1849, 1864, 1847, 1854, 1857, 1869, 1845, 1830, 1868, 1854, 1861, 1829, 1840, 1862, 1868, 1858, 1824, 1851, 1867, 1871, 1859, 1827, 1857, 1878, 1854, 1860, 1838, 1829, 1826, 1842, 1867, 1837, 1842, 1836, 1843, 1856, 1840, 1843, 1854, 1820, 1830, 1834, 1849, 1825, 1843, 1848, 1847, 1850, 1824, 1844, 1850, 1836, 1837, 1842, 1870, 1822, 1842, 1850, 1857, 1853, 1838, 1846, 1841, 1830, 1841, 1837, 1850, 1845, 1837, 1863, 1846, 1857, 1857, 1839, 1855, 1846, 1872, 1815, 1848, 1854, 1862, 1839, 1839, 1833, 1846, 1863, 1848, 1857, 1870, 1841, 1854, 1878, 1863, 1866, 1890, 1831, 1829, 1861, 1878, 1856, 1843, 1859, 1861, 1839, 1850, 1854, 1864, 1855, 1859, 1857, 1851, 1866, 1836, 1849, 1850],
      "WindowCenter": [771.0, 770.0, 769.0, 767.0, 766.0, 766.0, 766.0, 766.0, 765.0, 765.0, 765.0, 765.0, 765.0, 766.0, 766.0, 765.0, 765.0, 764.0, 765.0, 766.0, 766.0, 766.0, 766.0, 766.0, 766.0, 765.0, 766.0, 766.0, 766.0, 766.0, 766.0, 766.0, 766.0, 766.0, 766.0, 766.0, 767.0, 766.0, 766.0, 766.0, 767.0, 767.0, 766.0, 766.0, 766.0, 766.0, 766.0, 766.0, 766.0, 766.0, 766.0, 766.0, 766.0, 766.0, 767.0, 767.0, 766.0, 766.0, 766.0, 766.0, 767.0, 767.0, 767.0, 767.0, 767.0, 767.0, 768.0, 768.0, 767.0, 767.0, 767.0, 767.0, 767.0, 767.0, 767.0, 768.0, 767.0, 766.0, 766.0, 766.0, 767.0, 768.0, 768.0, 767.0, 767.0, 767.0, 767.0, 767.0, 766.0, 766.0, 766.0, 766.0, 766.0, 766.0, 766.0, 766.0, 766.0, 766.0, 766.0, 767.0, 766.0, 766.0, 766.0, 767.0, 766.0, 766.0, 766.0, 766.0, 766.0, 767.0, 767.0, 767.0, 766.0, 766.0, 766.0, 766.0, 767.0, 766.0, 767.0, 768.0, 767.0, 766.0, 767.0, 768.0, 768.0, 767.0, 766.0, 766.0, 767.0, 766.0, 766.0, 766.0, 766.0, 766.0, 766.0, 766.0, 767.0, 767.0, 766.0, 766.0, 766.0, 766.0, 766.0, 766.0, 766.0, 766.0, 767.0, 767.0, 767.0, 766.0, 766.0, 767.0, 766.0, 767.0, 767.0, 766.0, 766.0, 767.0, 767.0, 767.0, 766.0, 766.0, 768.0, 768.0],
      "WindowWidth": [1687.0, 1683.0, 1681.0, 1675.0, 1671.0, 1672.0, 1673.0, 1670.0, 1668.0, 1668.0, 1667.0, 1668.0, 1669.0, 1671.0, 1671.0, 1670.0, 1668.0, 1667.0, 1670.0, 1672.0, 1671.0, 1671.0, 1670.0, 1670.0, 1670.0, 1670.0, 1670.0, 1671.0, 1672.0, 1671.0, 1670.0, 1672.0, 1673.0, 1671.0, 1671.0, 1673.0, 1673.0, 1671.0, 1670.0, 1672.0, 1673.0, 1673.0, 1670.0, 1671.0, 1672.0, 1671.0, 1670.0, 1670.0, 1671.0, 1671.0, 1671.0, 1671.0, 1670.0, 1671.0, 1673.0, 1673.0, 1671.0, 1672.0, 1673.0, 1672.0, 1672.0, 1673.0, 1673.0, 1673.0, 1674.0, 1674.0, 1676.0, 1676.0, 1675.0, 1673.0, 1673.0, 1674.0, 1675.0, 1673.0, 1673.0, 1675.0, 1674.0, 1670.0, 1670.0, 1672.0, 1674.0, 1677.0, 1676.0, 1673.0, 1673.0, 1673.0, 1674.0, 1672.0, 1669.0, 1670.0, 1670.0, 1672.0, 1671.0, 1670.0, 1671.0, 1671.0, 1671.0, 1670.0, 1671.0, 1672.0, 1671.0, 1672.0, 1672.0, 1673.0, 1670.0, 1672.0, 1672.0, 1672.0, 1672.0, 1674.0, 1675.0, 1674.0, 1672.0, 1671.0, 1671.0, 1672.0, 1673.0, 1672.0, 1675.0, 1675.0, 1674.0, 1671.0, 1673.0, 1676.0, 1676.0, 1673.0, 1670.0, 1672.0, 1673.0, 1672.0, 1670.0, 1671.0, 1670.0, 1670.0, 1671.0, 1671.0, 1674.0, 1673.0, 1671.0, 1671.0, 1671.0, 1671.0, 1672.0, 1671.0, 1671.0, 1670.0, 1673.0, 1675.0, 1672.0, 1672.0, 1672.0, 1672.0, 1671.0, 1672.0, 1673.0, 1672.0, 1671.0, 1672.0, 1674.0, 1673.0, 1672.0, 1672.0, 1677.0, 1676.0]
    },
    "slices": {}
  }
}