{
  "AcquisitionMatrixPE": 64,
  "AcquisitionNumber": 1,
  "AcquisitionTime": "13:04:30.440000",
  "BandwidthPerPixelPhaseEncode": 33.967,
  "BaseResolution": 64,
  "CoilCombinationMethod": "Sum of Squares",
  "CoilString": "C:HEA;HEP",
  "ConversionSoftware": "dcm2niix",
  "ConversionSoftwareVersion": "v1.0.20220720",
  "DerivedVendorReportedEchoSpacing": 0.000460005,
  "DeviceSerialNumber": "35193",
  "DwellTime": 3.1e-06,
  "EchoTime": 0.03,
  "EffectiveEchoSpacing": 0.000460005,
  "FlipAngle": 90,
  "HeudiconvVersion": "1.1.6",
  "ImageOrientationPatientDICOM": [0.999473, -0.0191975, 0.0261721, 0.0191909, 0.999816, 0.00050253],
  "ImageOrientationText": "Tra>Sag(1.5)",
  "ImageType": [
    "ORIGINAL",
    "PRIMARY",
    "M",
    "ND",
    "MOSAIC"
],
  "ImagingFrequency": 123.254,
  "InPlanePhaseEncodingDirectionDICOM": "COL",
  "InstitutionAddress": "Xinjiekouwai Street No 19,Beijing,Haidian District,CN,100875",
  "InstitutionName": "BNU MRI Center",
  "InstitutionalDepartmentName": "Department",
  "MRAcquisitionType": "2D",
  "MagneticFieldStrength": 3,
  "Manufacturer": "Siemens",
  "ManufacturersModelName": "TrioTim",
  "MatrixCoilMode": "SENSE",
  "Modality": "MR",
  "NonlinearGradientCorrection": false,
  "PartialFourier": 1,
  "PatientPosition": "HFS",
  "PercentPhaseFOV": 100,
  "PercentSampling": 100,
  "PhaseEncodingDirection": "j-",
  "PhaseEncodingSteps": 64,
  "PhaseResolution": 1,
  "PixelBandwidth": 2520,
  "ProcedureStepDescription": "BNU_cst_2015^Guo.TaoMei",
  "ProtocolName": "ge_func_3x3x4_164",
  "PulseSequenceDetails": "%SiemensSeq%\\ep2d_bold",
  "ReceiveCoilName": "HeadMatrix",
  "ReconMatrixPE": 64,
  "RepetitionTime": 2,
  "SAR": 0.147237,
  "ScanOptions": "FS",
  "ScanningSequence": "EP",
  "SequenceName": "*epfid2d1_64",
  "SequenceVariant": "SK",
  "SeriesDescription": "ge_func_3x3x4_164",
  "SeriesNumber": 3,
  "ShimSetting": [-4506, -19310, -9813, 1077, -223, -61, 269, 19],
  "SliceThickness": 4,
  "SliceTiming": [0, 1.0325, 0.06, 1.095, 0.12, 1.155, 0.1825, 1.215, 0.2425, 1.2775, 0.3025, 1.3375, 0.365, 1.3975, 0.425, 1.46, 0.485, 1.52, 0.5475, 1.58, 0.6075, 1.6425, 0.6675, 1.7025, 0.73, 1.7625, 0.79, 1.825, 0.85, 1.885, 0.9125, 1.945, 0.9725],
  "SoftwareVersions": "syngo MR B17",
  "SpacingBetweenSlices": 4.6,
  "StationName": "MRC35193",
  "TaskName": "LanguageControl",
  "TotalReadoutTime": 0.0289803,
  "TxRefAmp": 344.995,
  "dcmmeta_affine": [
    [-3.1233534812927246, 0.059971537441015244, 0.12041395902633667, 109.65554809570312],
    [0.059992093592882156, 3.1244239807128906, -3.4192839670765807e-09, -94.05400085449219],
    [0.08178789168596268, -0.0015704076504334807, 4.598423480987549, -59.275840759277344],
    [0.0, 0.0, 0.0, 1.0]
],
  "dcmmeta_reorient_transform": [
    [0.0, -1.0, 0.0, 63.0],
    [1.0, 0.0, 0.0, 0.0],
    [0.0, 0.0, 1.0, 0.0],
    [0.0, 0.0, 0.0, 1.0]
],
  "dcmmeta_shape": [64, 64, 33, 164],
  "dcmmeta_slice_dim": 2,
  "dcmmeta_version": 0.6,
  "global": {
    "const": {
      "AcquisitionMatrix": [64, 0, 0, 64],
      "AngioFlag": "N",
      "BitsAllocated": 16,
      "BitsStored": 12,
      "Columns": 384,
      "EchoNumbers": 1,
      "EchoTime": 30.0,
      "EchoTrainLength": 1,
      "FlipAngle": 90.0,
      "HighBit": 11,
      "ImageOrientationPatient": [0.99947309971033, -0.0191974701251, 0.0261721244116, 0.01919089165087, 0.99981571158929, 0.00050253044397],
      "ImagePositionPatient": [-622.76574711164, -593.09383620926, -72.712102636246],
      "ImageType": [
        "ORIGINAL",
        "PRIMARY",
        "M",
        "ND",
        "MOSAIC"
],
      "ImagedNucleus": "1H",
      "ImagingFrequency": 123.253677,
      "InPlanePhaseEncodingDirection": "COL",
      "MRAcquisitionType": "2D",
      "MagneticFieldStrength": 3.0,
      "Manufacturer": "SIEMENS",
      "ManufacturerModelName": "TrioTim",
      "Modality": "MR",
      "NumberOfAverages": 1.0,
      "NumberOfPhaseEncodingSteps": 64,
      "PercentPhaseFieldOfView": 100.0,
      "PercentSampling": 100.0,
      "PerformedProcedureStepStartTime": "125542.640000",
      "PhotometricInterpretation": "MONOCHROME2",
      "PixelBandwidth": 2520.0,
      "PixelRepresentation": 0,
      "PixelSpacing": [3.125, 3.125],
      "ProtocolName": "ge_func_3x3x4_164",
      "RepetitionTime": 2000.0,
      "Rows": 384,
      "SAR": 0.14723665114498,
      "SamplesPerPixel": 1,
      "ScanOptions": "FS",
      "ScanningSequence": "EP",
      "SequenceName": "*epfid2d1_64",
      "SequenceVariant": "SK",
      "SeriesDescription": "ge_func_3x3x4_164",
      "SeriesNumber": 3,
      "SeriesTime": "130527.906000",
      "SliceLocation": -56.385079562002,
      "SliceThickness": 4.0,
      "SmallestImagePixelValue": 0,
      "SoftwareVersions": "syngo MR B17",
      "SpacingBetweenSlices": 4.5999999052582,
      "SpecificCharacterSet": "ISO_IR 100",
      "StudyID": "1",
      "StudyTime": "125542.562000",
      "TransmitCoilName": "Body",
      "VariableFlipAngleFlag": "N",
      "WindowCenterWidthExplanation": "Algo1",
      "dBdt": 0.0},
    "slices": {}
  },
  "time": {
    "samples": {
      "AcquisitionNumber": [1, 2, 3, 4, 5, 6, 7, 8, 9, 10, 11, 12, 13, 14, 15, 16, 17, 18, 19, 20, 21, 22, 23, 24, 25, 26, 27, 28, 29, 30, 31, 32, 33, 34, 35, 36, 37, 38, 39, 40, 41, 42, 43, 44, 45, 46, 47, 48, 49, 50, 51, 52, 53, 54, 55, 56, 57, 58, 59, 60, 61, 62, 63, 64, 65, 66, 67, 68, 69, 70, 71, 72, 73, 74, 75, 76, 77, 78, 79, 80, 81, 82, 83, 84, 85, 86, 87, 88, 89, 90, 91, 92, 93, 94, 95, 96, 97, 98, 99, 100, 101, 102, 103, 104, 105, 106, 107, 108, 109, 110, 111, 112, 113, 114, 115, 116, 117, 118, 119, 120, 121, 122, 123, 124, 125, 126, 127, 128, 129, 130, 131, 132, 133, 134, 135, 136, 137, 138, 139, 140, 141, 142, 143, 144, 145, 146, 147, 148, 149, 150, 151, 152, 153, 154, 155, 156, 157, 158, 159, 160, 161, 162, 163, 164],
      "AcquisitionTime": ["130430.440000", "130432.447500", "130434.455000", "130436.462500", "130438.470000", "130440.480000", "130442.487500", "130444.495000", "130446.502500", "130448.512500", "130450.520000", "130452.527500", "130454.535000", "130456.542500", "130458.552500", "130500.560000", "130502.567500", "130504.575000", "130506.582500", "130508.592500", "130510.600000", "130512.607500", "130514.615000", "130516.625000", "130518.632500", "130520.640000", "130522.647500", "130524.655000", "130526.665000", "130528.672500", "130530.680000", "130532.687500", "130534.695000", "130536.705000", "130538.712500", "130540.720000", "130542.727500", "130544.737500", "130546.745000", "130548.752500", "130550.760000", "130552.767500", "130554.777500", "130556.785000", "130558.792500", "130600.800000", "130602.807500", "130604.817500", "130606.825000", "130608.832500", "130610.840000", "130612.847500", "130614.857500", "130616.865000", "130618.872500", "130620.880000", "130622.890000", "130624.897500", "130626.905000", "130628.912500", "130630.920000", "130632.930000", "130634.937500", "130636.945000", "130638.952500", "130640.960000", "130642.970000", "130644.977500", "130646.985000", "130648.992500", "130651.002500", "130653.010000", "130655.017500", "130657.025000", "130659.032500", "130701.042500", "130703.050000", "130705.057500", "130707.065000", "130709.072500", "130711.082500", "130713.090000", "130715.097500", "130717.105000", "130719.115000", "130721.122500", "130723.130000", "130725.137500", "130727.145000", "130729.155000", "130731.162500", "130733.170000", "130735.177500", "130737.185000", "130739.195000", "130741.202500", "130743.210000", "130745.217500", "130747.227500", "130749.235000", "130751.242500", "130753.250000", "130755.257500", "130757.267500", "130759.275000", "130801.282500", "130803.290000", "130805.297500", "130807.307500", "130809.315000", "130811.322500", "130813.330000", "130815.337500", "130817.347500", "130819.355000", "130821.362500", "130823.370000", "130825.380000", "130827.387500", "130829.395000", "130831.402500", "130833.410000", "130835.420000", "130837.427500", "130839.435000", "130841.442500", "130843.450000", "130845.460000", "130847.467500", "130849.475000", "130851.482500", "130853.492500", "130855.500000", "130857.507500", "130859.515000", "130901.522500", "130903.532500", "130905.540000", "130907.547500", "130909.555000", "130911.562500", "130913.572500", "130915.580000", "130917.587500", "130919.595000", "130921.605000", "130923.612500", "130925.620000", "130927.627500", "130929.635000", "130931.645000", "130933.652500", "130935.660000", "130937.667500", "130939.675000", "130941.685000", "130943.692500", "130945.700000", "130947.707500", "130949.715000", "130951.725000", "130953.732500", "130955.740000", "130957.747500"],
      "ContentTime": ["130527.906000", "130527.906000", "130527.906000", "130527.906000", "130527.921000", "130527.921000", "130527.921000", "130527.921000", "130527.921000", "130527.921000", "130527.921000", "130527.921000", "130527.937000", "130527.937000", "130527.937000", "130527.937000", "130527.937000", "130527.953000", "130527.953000", "130527.968000", "130527.968000", "130527.968000", "130527.968000", "130527.968000", "130527.968000", "130527.968000", "130527.968000", "130527.984000", "130607.906000", "130607.906000", "130607.906000", "130607.906000", "130607.906000", "130607.906000", "130607.921000", "130607.921000", "130607.921000", "130607.921000", "130607.921000", "130607.921000", "130607.921000", "130607.921000", "130607.937000", "130607.937000", "130607.937000", "130607.937000", "130607.937000", "130607.937000", "130647.906000", "130647.906000", "130647.906000", "130647.906000", "130647.906000", "130647.906000", "130647.906000", "130647.906000", "130647.921000", "130647.921000", "130647.921000", "130647.921000", "130647.921000", "130647.921000", "130647.921000", "130647.921000", "130647.937000", "130647.937000", "130647.937000", "130647.937000", "130727.906000", "130727.906000", "130727.906000", "130727.906000", "130727.906000", "130727.906000", "130727.906000", "130727.921000", "130727.921000", "130727.921000", "130727.921000", "130727.921000", "130727.921000", "130727.937000", "130727.937000", "130727.937000", "130727.937000", "130727.937000", "130727.937000", "130727.937000", "130807.906000", "130807.906000", "130807.906000", "130807.906000", "130807.906000", "130807.906000", "130807.906000", "130807.906000", "130807.921000", "130807.921000", "130807.921000", "130807.921000", "130807.921000", "130807.921000", "130807.921000", "130807.921000", "130807.937000", "130807.937000", "130807.937000", "130807.937000", "130847.906000", "130847.906000", "130847.906000", "130847.906000", "130847.906000", "130847.906000", "130847.906000", "130847.906000", "130847.921000", "130847.921000", "130847.921000", "130847.921000", "130847.921000", "130847.921000", "130847.921000", "130847.921000", "130847.937000", "130847.937000", "130847.937000", "130847.937000", "130927.890000", "130927.906000", "130927.906000", "130927.906000", "130927.906000", "130927.906000", "130927.906000", "130927.921000", "130927.921000", "130927.921000", "130927.921000", "130927.921000", "130927.921000", "130927.921000", "130927.921000", "130927.937000", "130927.937000", "130927.937000", "130927.937000", "130927.937000", "130947.890000", "130947.906000", "130947.906000", "130947.906000", "130947.906000", "130947.921000", "130947.921000", "130947.921000", "130947.921000", "130947.921000", "130959.453000", "130959.453000", "130959.453000", "130959.453000", "130959.453000", "130959.468000"],
      "InstanceCreationTime": ["130527.906000", "130527.906000", "130527.906000", "130527.906000", "130527.921000", "130527.921000", "130527.921000", "130527.921000", "130527.921000", "130527.921000", "130527.921000", "130527.921000", "130527.937000", "130527.937000", "130527.937000", "130527.937000", "130527.937000", "130527.953000", "130527.953000", "130527.968000", "130527.968000", "130527.968000", "130527.968000", "130527.968000", "130527.968000", "130527.968000", "130527.968000", "130527.984000", "130607.906000", "130607.906000", "130607.906000", "130607.906000", "130607.906000", "130607.906000", "130607.921000", "130607.921000", "130607.921000", "130607.921000", "130607.921000", "130607.921000", "130607.921000", "130607.921000", "130607.937000", "130607.937000", "130607.937000", "130607.937000", "130607.937000", "130607.937000", "130647.906000", "130647.906000", "130647.906000", "130647.906000", "130647.906000", "130647.906000", "130647.906000", "130647.906000", "130647.921000", "130647.921000", "130647.921000", "130647.921000", "130647.921000", "130647.921000", "130647.921000", "130647.921000", "130647.937000", "130647.937000", "130647.937000", "130647.937000", "130727.906000", "130727.906000", "130727.906000", "130727.906000", "130727.906000", "130727.906000", "130727.906000", "130727.921000", "130727.921000", "130727.921000", "130727.921000", "130727.921000", "130727.921000", "130727.937000", "130727.937000", "130727.937000", "130727.937000", "130727.937000", "130727.937000", "130727.937000", "130807.906000", "130807.906000", "130807.906000", "130807.906000", "130807.906000", "130807.906000", "130807.906000", "130807.906000", "130807.921000", "130807.921000", "130807.921000", "130807.921000", "130807.921000", "130807.921000", "130807.921000", "130807.921000", "130807.937000", "130807.937000", "130807.937000", "130807.937000", "130847.906000", "130847.906000", "130847.906000", "130847.906000", "130847.906000", "130847.906000", "130847.906000", "130847.906000", "130847.921000", "130847.921000", "130847.921000", "130847.921000", "130847.921000", "130847.921000", "130847.921000", "130847.921000", "130847.937000", "130847.937000", "130847.937000", "130847.937000", "130927.890000", "130927.906000", "130927.906000", "130927.906000", "130927.906000", "130927.906000", "130927.906000", "130927.921000", "130927.921000", "130927.921000", "130927.921000", "130927.921000", "130927.921000", "130927.921000", "130927.921000", "130927.937000", "130927.937000", "130927.937000", "130927.937000", "130927.937000", "130947.890000", "130947.906000", "130947.906000", "130947.906000", "130947.906000", "130947.921000", "130947.921000", "130947.921000", "130947.921000", "130947.921000", "130959.453000", "130959.453000", "130959.453000", "130959.453000", "130959.453000", "130959.468000"],
      "InstanceNumber": [1, 2, 3, 4, 5, 6, 7, 8, 9, 10, 11, 12, 13, 14, 15, 16, 17, 18, 19, 20, 21, 22, 23, 24, 25, 26, 27, 28, 29, 30, 31, 32, 33, 34, 35, 36, 37, 38, 39, 40, 41, 42, 43, 44, 45, 46, 47, 48, 49, 50, 51, 52, 53, 54, 55, 56, 57, 58, 59, 60, 61, 62, 63, 64, 65, 66, 67, 68, 69, 70, 71, 72, 73, 74, 75, 76, 77, 78, 79, 80, 81, 82, 83, 84, 85, 86, 87, 88, 89, 90, 91, 92, 93, 94, 95, 96, 97, 98, 99, 100, 101, 102, 103, 104, 105, 106, 107, 108, 109, 110, 111, 112, 113, 114, 115, 116, 117, 118, 119, 120, 121, 122, 123, 124, 125, 126, 127, 128, 129, 130, 131, 132, 133, 134, 135, 136, 137, 138, 139, 140, 141, 142, 143, 144, 145, 146, 147, 148, 149, 150, 151, 152, 153, 154, 155, 156, 157, 158, 159, 160, 161, 162, 163, 164],
      "LargestImagePixelValue": [1965, 1929, 1878, 1909, 1888, 1889, 1880, 1875, 1871, 1877, 1879, 1857, 1862, 1902, 1859, 1857, 1888, 1867, 1878, 1883, 1873, 1846, 1853, 1860, 1863, 1867, 1876, 1893, 1869, 1878, 1881, 1870, 1883, 1867, 1864, 1879, 1863, 1861, 1859, 1871, 1844, 1876, 1872, 1855, 1850, 1883, 1854, 1874, 1858, 1858, 1851, 1875, 1865, 1848, 1862, 1853, 1851, 1844, 1882, 1851, 1852, 1847, 1851, 1873, 1871, 1866, 1869, 1868, 1872, 1860, 1872, 1876, 1847, 1837, 1858, 1856, 1851, 1858, 1854, 1866, 1868, 1846, 1846, 1857, 1858, 1880, 1867, 1861, 1861, 1844, 1834, 1850, 1855, 1867, 1858, 1842, 1853, 1865, 1875, 1874, 1869, 1891, 1863, 1870, 1873, 1900, 1901, 1880, 1885, 1886, 1861, 1859, 1870, 1882, 1869, 1845, 1859, 1865, 1872, 1859, 1847, 1878, 1859, 1848, 1865, 1851, 1859, 1859, 1862, 1844, 1868, 1864, 1887, 1876, 1854, 1867, 1871, 1894, 1856, 1858, 1859, 1874, 1858, 1852, 1865, 1844, 1859, 1865, 1865, 1865, 1867, 1863, 1845, 1866, 1857, 1852, 1845, 1855, 1882, 1859, 1861, 1861, 1857, 1865],
      "WindowCenter": [773.0, 771.0, 771.0, 770.0, 769.0, 769.0, 770.0, 769.0, 769.0, 768.0, 768.0, 768.0, 768.0, 768.0, 768.0, 767.0, 768.0, 768.0, 768.0, 768.0, 768.0, 768.0, 768.0, 768.0, 768.0, 768.0, 768.0, 767.0, 767.0, 768.0, 769.0, 770.0, 769.0, 769.0, 769.0, 769.0, 768.0, 769.0, 768.0, 768.0, 768.0, 768.0, 768.0, 768.0, 768.0, 769.0, 769.0, 769.0, 768.0, 768.0, 768.0, 768.0, 768.0, 768.0, 768.0, 768.0, 768.0, 769.0, 769.0, 769.0, 769.0, 768.0, 767.0, 768.0, 768.0, 768.0, 767.0, 767.0, 768.0, 768.0, 769.0, 769.0, 768.0, 768.0, 769.0, 769.0, 769.0, 768.0, 767.0, 767.0, 768.0, 768.0, 767.0, 767.0, 768.0, 768.0, 768.0, 769.0, 769.0, 768.0, 768.0, 768.0, 768.0, 768.0, 768.0, 768.0, 768.0, 768.0, 769.0, 770.0, 770.0, 769.0, 769.0, 770.0, 770.0, 770.0, 770.0, 769.0, 769.0, 769.0, 768.0, 768.0, 769.0, 769.0, 769.0, 767.0, 767.0, 768.0, 769.0, 768.0, 768.0, 769.0, 769.0, 769.0, 769.0, 768.0, 768.0, 769.0, 769.0, 769.0, 769.0, 770.0, 770.0, 770.0, 769.0, 770.0, 770.0, 771.0, 770.0, 769.0, 768.0, 769.0, 769.0, 769.0, 769.0, 769.0, 769.0, 768.0, 769.0, 769.0, 769.0, 768.0, 768.0, 769.0, 768.0, 768.0, 767.0, 768.0, 769.0, 769.0, 769.0, 768.0, 769.0, 769.0],
      "WindowWidth": [1693.0, 1688.0, 1685.0, 1683.0, 1681.0, 1682.0, 1683.0, 1680.0, 1681.0, 1679.0, 1677.0, 1678.0, 1677.0, 1677.0, 1676.0, 1676.0, 1678.0, 1678.0, 1677.0, 1678.0, 1679.0, 1678.0, 1678.0, 1678.0, 1677.0, 1678.0, 1677.0, 1675.0, 1676.0, 1678.0, 1681.0, 1683.0, 1681.0, 1680.0, 1679.0, 1680.0, 1678.0, 1679.0, 1678.0, 1678.0, 1678.0, 1678.0, 1679.0, 1678.0, 1678.0, 1680.0, 1680.0, 1682.0, 1679.0, 1677.0, 1676.0, 1678.0, 1679.0, 1677.0, 1677.0, 1679.0, 1679.0, 1681.0, 1682.0, 1682.0, 1681.0, 1678.0, 1675.0, 1676.0, 1678.0, 1678.0, 1675.0, 1676.0, 1678.0, 1679.0, 1679.0, 1680.0, 1679.0, 1679.0, 1680.0, 1680.0, 1680.0, 1678.0, 1676.0, 1675.0, 1678.0, 1678.0, 1676.0, 1676.0, 1678.0, 1679.0, 1679.0, 1680.0, 1679.0, 1678.0, 1679.0, 1678.0, 1678.0, 1678.0, 1678.0, 1677.0, 1678.0, 1677.0, 1681.0, 1685.0, 1683.0, 1681.0, 1679.0, 1682.0, 1683.0, 1684.0, 1684.0, 1680.0, 1679.0, 1679.0, 1677.0, 1678.0, 1680.0, 1682.0, 1680.0, 1676.0, 1676.0, 1676.0, 1679.0, 1677.0, 1678.0, 1680.0, 1681.0, 1682.0, 1680.0, 1678.0, 1679.0, 1681.0, 1680.0, 1680.0, 1681.0, 1682.0, 1683.0, 1682.0, 1681.0, 1683.0, 1683.0, 1685.0, 1684.0, 1680.0, 1678.0, 1681.0, 1680.0, 1679.0, 1680.0, 1680.0, 1679.0, 1678.0, 1680.0, 1679.0, 1679.0, 1678.0, 1676.0, 1679.0, 1678.0, 1677.0, 1675.0, 1676.0, 1679.0, 1680.0, 1679.0, 1677.0, 1679.0, 1681.0]
    },
    "slices": {}
  }
}