{
  "AcquisitionMatrixPE": 64,
  "AcquisitionNumber": 1,
  "AcquisitionTime": "13:52:19.495000",
  "BandwidthPerPixelPhaseEncode": 33.967,
  "BaseResolution": 64,
  "CoilCombinationMethod": "Sum of Squares",
  "CoilString": "C:HEA;HEP",
  "ConversionSoftware": "dcm2niix",
  "ConversionSoftwareVersion": "v1.0.20220720",
  "DerivedVendorReportedEchoSpacing": 0.000460005,
  "DeviceSerialNumber": "35193",
  "DwellTime": 3.1e-06,
  "EchoTime": 0.03,
  "EffectiveEchoSpacing": 0.000460005,
  "FlipAngle": 90,
  "HeudiconvVersion": "1.1.6",
  "ImageOrientationPatientDICOM": [0.999781, -1e-16, -0.0209424, 1e-16, 1, 0],
  "ImageOrientationText": "Tra>Sag(-1.2)",
  "ImageType": [
    "ORIGINAL",
    "PRIMARY",
    "M",
    "ND",
    "MOSAIC"
],
  "ImagingFrequency": 123.254,
  "InPlanePhaseEncodingDirectionDICOM": "COL",
  "InstitutionAddress": "Xinjiekouwai Street No 19,Beijing,Haidian District,CN,100875",
  "InstitutionName": "BNU MRI Center",
  "InstitutionalDepartmentName": "Department",
  "MRAcquisitionType": "2D",
  "MagneticFieldStrength": 3,
  "Manufacturer": "Siemens",
  "ManufacturersModelName": "TrioTim",
  "MatrixCoilMode": "SENSE",
  "Modality": "MR",
  "NonlinearGradientCorrection": false,
  "PartialFourier": 1,
  "PatientPosition": "HFS",
  "PercentPhaseFOV": 100,
  "PercentSampling": 100,
  "PhaseEncodingDirection": "j-",
  "PhaseEncodingSteps": 64,
  "PhaseResolution": 1,
  "PixelBandwidth": 2520,
  "ProcedureStepDescription": "BNU_cst_2015^Guo.TaoMei",
  "ProtocolName": "ge_func_3x3x4_164",
  "PulseSequenceDetails": "%SiemensSeq%\\ep2d_bold",
  "ReceiveCoilName": "HeadMatrix",
  "ReconMatrixPE": 64,
  "RepetitionTime": 2,
  "SAR": 0.176598,
  "ScanOptions": "FS",
  "ScanningSequence": "EP",
  "SequenceName": "*epfid2d1_64",
  "SequenceVariant": "SK",
  "SeriesDescription": "ge_func_3x3x4_164",
  "SeriesNumber": 3,
  "ShimSetting": [-4489, -19468, -9766, 1229, 2, -535, -4, -66],
  "SliceThickness": 4,
  "SliceTiming": [0, 1.035, 0.0625, 1.095, 0.1225, 1.1575, 0.1825, 1.2175, 0.245, 1.2775, 0.305, 1.34, 0.365, 1.4, 0.4275, 1.46, 0.4875, 1.5225, 0.5475, 1.5825, 0.61, 1.6425, 0.67, 1.705, 0.73, 1.765, 0.7925, 1.825, 0.8525, 1.8875, 0.9125, 1.9475, 0.975],
  "SoftwareVersions": "syngo MR B17",
  "SpacingBetweenSlices": 4.6,
  "StationName": "MRC35193",
  "TaskName": "CognitiveControl",
  "TotalReadoutTime": 0.0289803,
  "TxRefAmp": 367.327,
  "dcmmeta_affine": [
    [-3.124314546585083, 3.124999945161469e-16, -0.09633512794971466, 108.94111633300781],
    [3.124999945161469e-16, 3.125, 9.633512504276296e-18, -87.42921447753906],
    [-0.06544505804777145, 0.0, 4.5989909172058105, -55.97154235839844],
    [0.0, 0.0, 0.0, 1.0]
],
  "dcmmeta_reorient_transform": [
    [0.0, -1.0, 0.0, 63.0],
    [1.0, 0.0, 0.0, 0.0],
    [0.0, 0.0, 1.0, 0.0],
    [0.0, 0.0, 0.0, 1.0]
],
  "dcmmeta_shape": [64, 64, 33, 164],
  "dcmmeta_slice_dim": 2,
  "dcmmeta_version": 0.6,
  "global": {
    "const": {
      "AcquisitionMatrix": [64, 0, 0, 64],
      "AngioFlag": "N",
      "BitsAllocated": 16,
      "BitsStored": 12,
      "Columns": 384,
      "EchoNumbers": 1,
      "EchoTime": 30.0,
      "EchoTrainLength": 1,
      "FlipAngle": 90.0,
      "HighBit": 11,
      "ImageOrientationPatient": [0.9997806834792, -1e-16, -0.0209424196753, 1e-16, 1.0, 0.0],
      "ImagePositionPatient": [-608.83145902246, -609.44578266144, -45.50033264916],
      "ImageType": [
        "ORIGINAL",
        "PRIMARY",
        "M",
        "ND",
        "MOSAIC"
],
      "ImagedNucleus": "1H",
      "ImagingFrequency": 123.253622,
      "InPlanePhaseEncodingDirection": "COL",
      "MRAcquisitionType": "2D",
      "MagneticFieldStrength": 3.0,
      "Manufacturer": "SIEMENS",
      "ManufacturerModelName": "TrioTim",
      "Modality": "MR",
      "NumberOfAverages": 1.0,
      "NumberOfPhaseEncodingSteps": 64,
      "PercentPhaseFieldOfView": 100.0,
      "PercentSampling": 100.0,
      "PerformedProcedureStepStartTime": "134209.984000",
      "PhotometricInterpretation": "MONOCHROME2",
      "PixelBandwidth": 2520.0,
      "PixelRepresentation": 0,
      "PixelSpacing": [3.125, 3.125],
      "ProtocolName": "ge_func_3x3x4_164",
      "RepetitionTime": 2000.0,
      "Rows": 384,
      "SAR": 0.17659750463772,
      "SamplesPerPixel": 1,
      "ScanOptions": "FS",
      "ScanningSequence": "EP",
      "SequenceName": "*epfid2d1_64",
      "SequenceVariant": "SK",
      "SeriesDescription": "ge_func_3x3x4_164",
      "SeriesNumber": 3,
      "SeriesTime": "135302.140000",
      "SliceLocation": -58.240757600888,
      "SliceThickness": 4.0,
      "SmallestImagePixelValue": 0,
      "SoftwareVersions": "syngo MR B17",
      "SpacingBetweenSlices": 4.5999998923808,
      "SpecificCharacterSet": "ISO_IR 100",
      "StudyID": "1",
      "StudyTime": "134209.921000",
      "TransmitCoilName": "Body",
      "VariableFlipAngleFlag": "N",
      "WindowCenterWidthExplanation": "Algo1",
      "dBdt": 0.0},
    "slices": {}
  },
  "time": {
    "samples": {
      "AcquisitionNumber": [1, 2, 3, 4, 5, 6, 7, 8, 9, 10, 11, 12, 13, 14, 15, 16, 17, 18, 19, 20, 21, 22, 23, 24, 25, 26, 27, 28, 29, 30, 31, 32, 33, 34, 35, 36, 37, 38, 39, 40, 41, 42, 43, 44, 45, 46, 47, 48, 49, 50, 51, 52, 53, 54, 55, 56, 57, 58, 59, 60, 61, 62, 63, 64, 65, 66, 67, 68, 69, 70, 71, 72, 73, 74, 75, 76, 77, 78, 79, 80, 81, 82, 83, 84, 85, 86, 87, 88, 89, 90, 91, 92, 93, 94, 95, 96, 97, 98, 99, 100, 101, 102, 103, 104, 105, 106, 107, 108, 109, 110, 111, 112, 113, 114, 115, 116, 117, 118, 119, 120, 121, 122, 123, 124, 125, 126, 127, 128, 129, 130, 131, 132, 133, 134, 135, 136, 137, 138, 139, 140, 141, 142, 143, 144, 145, 146, 147, 148, 149, 150, 151, 152, 153, 154, 155, 156, 157, 158, 159, 160, 161, 162, 163, 164],
      "AcquisitionTime": ["135219.495000", "135221.505000", "135223.512500", "135225.520000", "135227.527500", "135229.537500", "135231.545000", "135233.552500", "135235.560000", "135237.567500", "135239.577500", "135241.585000", "135243.592500", "135245.600000", "135247.607500", "135249.617500", "135251.625000", "135253.632500", "135255.640000", "135257.647500", "135259.657500", "135301.665000", "135303.672500", "135305.680000", "135307.690000", "135309.697500", "135311.705000", "135313.712500", "135315.720000", "135317.730000", "135319.737500", "135321.745000", "135323.752500", "135325.760000", "135327.770000", "135329.777500", "135331.785000", "135333.792500", "135335.802500", "135337.810000", "135339.817500", "135341.825000", "135343.832500", "135345.842500", "135347.850000", "135349.857500", "135351.865000", "135353.872500", "135355.882500", "135357.890000", "135359.897500", "135401.905000", "135403.915000", "135405.922500", "135407.930000", "135409.937500", "135411.945000", "135413.955000", "135415.962500", "135417.970000", "135419.977500", "135421.985000", "135423.995000", "135426.002500", "135428.010000", "135430.017500", "135432.025000", "135434.035000", "135436.042500", "135438.050000", "135440.057500", "135442.067500", "135444.075000", "135446.082500", "135448.090000", "135450.097500", "135452.107500", "135454.115000", "135456.122500", "135458.130000", "135500.137500", "135502.147500", "135504.155000", "135506.162500", "135508.170000", "135510.180000", "135512.187500", "135514.195000", "135516.202500", "135518.210000", "135520.220000", "135522.227500", "135524.235000", "135526.242500", "135528.250000", "135530.260000", "135532.267500", "135534.275000", "135536.282500", "135538.292500", "135540.300000", "135542.307500", "135544.315000", "135546.322500", "135548.332500", "135550.340000", "135552.347500", "135554.355000", "135556.362500", "135558.372500", "135600.380000", "135602.387500", "135604.395000", "135606.402500", "135608.412500", "135610.420000", "135612.427500", "135614.435000", "135616.445000", "135618.452500", "135620.460000", "135622.467500", "135624.475000", "135626.485000", "135628.492500", "135630.500000", "135632.507500", "135634.515000", "135636.525000", "135638.532500", "135640.540000", "135642.547500", "135644.557500", "135646.565000", "135648.572500", "135650.580000", "135652.587500", "135654.597500", "135656.605000", "135658.612500", "135700.620000", "135702.627500", "135704.637500", "135706.645000", "135708.652500", "135710.660000", "135712.670000", "135714.677500", "135716.685000", "135718.692500", "135720.700000", "135722.710000", "135724.717500", "135726.725000", "135728.732500", "135730.740000", "135732.750000", "135734.757500", "135736.765000", "135738.772500", "135740.782500", "135742.790000", "135744.797500", "135746.805000"],
      "ContentTime": ["135302.140000", "135302.140000", "135302.140000", "135302.140000", "135302.140000", "135302.140000", "135302.156000", "135302.156000", "135302.156000", "135302.156000", "135302.171000", "135302.171000", "135302.171000", "135302.171000", "135302.171000", "135302.171000", "135302.187000", "135302.187000", "135302.187000", "135302.187000", "135302.187000", "135342.125000", "135342.140000", "135342.140000", "135342.140000", "135342.140000", "135342.140000", "135342.140000", "135342.140000", "135342.140000", "135342.156000", "135342.156000", "135342.156000", "135342.156000", "135342.156000", "135342.171000", "135342.171000", "135342.171000", "135342.171000", "135342.187000", "135342.187000", "135422.125000", "135422.140000", "135422.140000", "135422.140000", "135422.140000", "135422.140000", "135422.140000", "135422.140000", "135422.140000", "135422.156000", "135422.156000", "135422.156000", "135422.171000", "135422.171000", "135422.171000", "135422.171000", "135422.171000", "135422.171000", "135422.187000", "135422.187000", "135442.125000", "135442.140000", "135442.140000", "135442.140000", "135442.140000", "135442.140000", "135442.140000", "135442.140000", "135442.140000", "135442.156000", "135522.125000", "135522.140000", "135522.140000", "135522.140000", "135522.140000", "135522.140000", "135522.156000", "135522.156000", "135522.156000", "135522.156000", "135522.171000", "135522.171000", "135522.171000", "135522.171000", "135522.171000", "135522.171000", "135522.171000", "135522.187000", "135522.187000", "135522.187000", "135602.125000", "135602.140000", "135602.140000", "135602.140000", "135602.140000", "135602.140000", "135602.156000", "135602.156000", "135602.156000", "135602.156000", "135602.156000", "135602.156000", "135602.171000", "135602.171000", "135602.171000", "135602.171000", "135602.171000", "135602.171000", "135602.187000", "135602.187000", "135642.125000", "135642.140000", "135642.140000", "135642.140000", "135642.140000", "135642.140000", "135642.156000", "135642.156000", "135642.156000", "135642.156000", "135642.156000", "135642.156000", "135642.156000", "135642.156000", "135642.171000", "135642.171000", "135642.171000", "135642.171000", "135642.171000", "135642.171000", "135722.125000", "135722.125000", "135722.140000", "135722.140000", "135722.140000", "135722.140000", "135722.156000", "135722.156000", "135722.156000", "135722.187000", "135722.187000", "135722.187000", "135722.187000", "135722.187000", "135722.187000", "135722.187000", "135722.187000", "135722.203000", "135722.203000", "135722.203000", "135747.437000", "135747.437000", "135747.437000", "135747.437000", "135747.437000", "135747.453000", "135747.453000", "135747.453000", "135747.453000", "135747.453000", "135747.453000", "135747.453000", "135747.453000"],
      "InstanceCreationTime": ["135302.140000", "135302.140000", "135302.140000", "135302.140000", "135302.140000", "135302.140000", "135302.156000", "135302.156000", "135302.156000", "135302.156000", "135302.171000", "135302.171000", "135302.171000", "135302.171000", "135302.171000", "135302.171000", "135302.187000", "135302.187000", "135302.187000", "135302.187000", "135302.187000", "135342.125000", "135342.140000", "135342.140000", "135342.140000", "135342.140000", "135342.140000", "135342.140000", "135342.140000", "135342.140000", "135342.156000", "135342.156000", "135342.156000", "135342.156000", "135342.156000", "135342.171000", "135342.171000", "135342.171000", "135342.171000", "135342.187000", "135342.187000", "135422.125000", "135422.140000", "135422.140000", "135422.140000", "135422.140000", "135422.140000", "135422.140000", "135422.140000", "135422.140000", "135422.156000", "135422.156000", "135422.156000", "135422.171000", "135422.171000", "135422.171000", "135422.171000", "135422.171000", "135422.171000", "135422.187000", "135422.187000", "135442.125000", "135442.140000", "135442.140000", "135442.140000", "135442.140000", "135442.140000", "135442.140000", "135442.140000", "135442.140000", "135442.156000", "135522.125000", "135522.140000", "135522.140000", "135522.140000", "135522.140000", "135522.140000", "135522.156000", "135522.156000", "135522.156000", "135522.156000", "135522.171000", "135522.171000", "135522.171000", "135522.171000", "135522.171000", "135522.171000", "135522.171000", "135522.187000", "135522.187000", "135522.187000", "135602.125000", "135602.140000", "135602.140000", "135602.140000", "135602.140000", "135602.140000", "135602.156000", "135602.156000", "135602.156000", "135602.156000", "135602.156000", "135602.156000", "135602.171000", "135602.171000", "135602.171000", "135602.171000", "135602.171000", "135602.171000", "135602.187000", "135602.187000", "135642.125000", "135642.140000", "135642.140000", "135642.140000", "135642.140000", "135642.140000", "135642.156000", "135642.156000", "135642.156000", "135642.156000", "135642.156000", "135642.156000", "135642.156000", "135642.156000", "135642.171000", "135642.171000", "135642.171000", "135642.171000", "135642.171000", "135642.171000", "135722.125000", "135722.125000", "135722.140000", "135722.140000", "135722.140000", "135722.140000", "135722.156000", "135722.156000", "135722.156000", "135722.187000", "135722.187000", "135722.187000", "135722.187000", "135722.187000", "135722.187000", "135722.187000", "135722.187000", "135722.203000", "135722.203000", "135722.203000", "135747.437000", "135747.437000", "135747.437000", "135747.437000", "135747.437000", "135747.453000", "135747.453000", "135747.453000", "135747.453000", "135747.453000", "135747.453000", "135747.453000", "135747.453000"],
      "InstanceNumber": [1, 2, 3, 4, 5, 6, 7, 8, 9, 10, 11, 12, 13, 14, 15, 16, 17, 18, 19, 20, 21, 22, 23, 24, 25, 26, 27, 28, 29, 30, 31, 32, 33, 34, 35, 36, 37, 38, 39, 40, 41, 42, 43, 44, 45, 46, 47, 48, 49, 50, 51, 52, 53, 54, 55, 56, 57, 58, 59, 60, 61, 62, 63, 64, 65, 66, 67, 68, 69, 70, 71, 72, 73, 74, 75, 76, 77, 78, 79, 80, 81, 82, 83, 84, 85, 86, 87, 88, 89, 90, 91, 92, 93, 94, 95, 96, 97, 98, 99, 100, 101, 102, 103, 104, 105, 106, 107, 108, 109, 110, 111, 112, 113, 114, 115, 116, 117, 118, 119, 120, 121, 122, 123, 124, 125, 126, 127, 128, 129, 130, 131, 132, 133, 134, 135, 136, 137, 138, 139, 140, 141, 142, 143, 144, 145, 146, 147, 148, 149, 150, 151, 152, 153, 154, 155, 156, 157, 158, 159, 160, 161, 162, 163, 164],
      "LargestImagePixelValue": [1773, 1886, 1728, 1722, 1714, 1797, 1846, 1699, 1707, 1859, 1736, 1714, 1725, 1727, 1735, 1869, 1708, 1712, 1776, 1693, 1709, 1788, 1685, 1738, 1783, 1718, 1700, 1950, 1714, 1726, 1700, 1721, 1760, 1708, 1720, 1706, 1847, 1702, 1704, 1699, 1910, 1721, 1723, 1710, 1707, 1722, 1709, 1870, 1714, 1735, 1785, 1742, 1755, 1759, 1750, 1747, 1763, 1759, 1753, 1806, 1761, 1758, 1750, 1760, 1745, 1736, 1750, 1773, 1761, 1765, 1781, 1770, 1750, 1764, 1758, 1759, 1766, 1755, 1760, 1755, 1873, 1791, 1787, 1756, 1748, 1767, 1760, 1767, 1762, 1766, 1770, 1764, 1773, 1772, 1743, 1773, 1801, 1789, 1793, 1802, 1815, 1781, 1782, 1761, 1903, 1769, 1759, 1775, 1777, 1774, 1783, 1773, 1777, 1770, 1781, 1778, 1765, 1760, 1790, 1792, 1755, 1785, 1776, 1763, 1780, 1774, 1749, 1773, 1767, 1815, 1774, 1774, 1758, 1771, 1769, 1757, 1779, 1759, 1766, 1760, 1806, 1764, 1774, 1761, 1842, 1803, 1799, 1751, 1777, 1794, 1781, 1816, 1755, 1754, 1765, 1762, 1768, 1790, 1798, 1812, 1761, 1760, 1791, 1753],
      "WindowCenter": [738.0, 735.0, 735.0, 735.0, 735.0, 735.0, 734.0, 733.0, 734.0, 735.0, 734.0, 733.0, 734.0, 734.0, 734.0, 734.0, 733.0, 733.0, 734.0, 733.0, 733.0, 734.0, 734.0, 734.0, 735.0, 734.0, 733.0, 736.0, 734.0, 734.0, 734.0, 734.0, 734.0, 734.0, 734.0, 734.0, 735.0, 735.0, 734.0, 734.0, 735.0, 735.0, 735.0, 735.0, 734.0, 735.0, 735.0, 736.0, 734.0, 735.0, 735.0, 735.0, 734.0, 735.0, 735.0, 734.0, 734.0, 735.0, 735.0, 735.0, 735.0, 734.0, 733.0, 734.0, 735.0, 735.0, 735.0, 735.0, 735.0, 735.0, 735.0, 735.0, 735.0, 735.0, 735.0, 736.0, 736.0, 736.0, 736.0, 735.0, 737.0, 737.0, 737.0, 736.0, 735.0, 734.0, 735.0, 736.0, 737.0, 736.0, 736.0, 736.0, 736.0, 736.0, 736.0, 737.0, 736.0, 736.0, 736.0, 737.0, 737.0, 736.0, 736.0, 736.0, 737.0, 736.0, 736.0, 736.0, 736.0, 736.0, 737.0, 737.0, 737.0, 736.0, 736.0, 737.0, 737.0, 737.0, 737.0, 736.0, 736.0, 737.0, 737.0, 737.0, 736.0, 736.0, 735.0, 737.0, 736.0, 736.0, 735.0, 736.0, 736.0, 736.0, 735.0, 735.0, 736.0, 736.0, 736.0, 737.0, 737.0, 736.0, 737.0, 736.0, 736.0, 737.0, 737.0, 736.0, 737.0, 738.0, 737.0, 737.0, 736.0, 735.0, 736.0, 737.0, 737.0, 737.0, 736.0, 736.0, 736.0, 737.0, 738.0, 737.0],
      "WindowWidth": [1588.0, 1581.0, 1580.0, 1580.0, 1580.0, 1580.0, 1579.0, 1576.0, 1578.0, 1581.0, 1578.0, 1575.0, 1577.0, 1579.0, 1578.0, 1578.0, 1576.0, 1576.0, 1578.0, 1574.0, 1574.0, 1577.0, 1578.0, 1579.0, 1581.0, 1578.0, 1576.0, 1583.0, 1578.0, 1578.0, 1578.0, 1576.0, 1577.0, 1579.0, 1578.0, 1578.0, 1582.0, 1580.0, 1578.0, 1577.0, 1582.0, 1580.0, 1581.0, 1580.0, 1579.0, 1580.0, 1580.0, 1582.0, 1579.0, 1580.0, 1581.0, 1579.0, 1579.0, 1580.0, 1581.0, 1578.0, 1579.0, 1581.0, 1580.0, 1581.0, 1580.0, 1578.0, 1576.0, 1577.0, 1579.0, 1579.0, 1580.0, 1581.0, 1581.0, 1581.0, 1581.0, 1580.0, 1582.0, 1581.0, 1580.0, 1583.0, 1582.0, 1583.0, 1583.0, 1581.0, 1585.0, 1585.0, 1585.0, 1583.0, 1581.0, 1579.0, 1580.0, 1583.0, 1585.0, 1583.0, 1584.0, 1583.0, 1584.0, 1583.0, 1583.0, 1585.0, 1583.0, 1584.0, 1584.0, 1585.0, 1587.0, 1584.0, 1584.0, 1582.0, 1585.0, 1582.0, 1583.0, 1583.0, 1582.0, 1584.0, 1584.0, 1586.0, 1585.0, 1584.0, 1584.0, 1585.0, 1587.0, 1586.0, 1585.0, 1583.0, 1582.0, 1585.0, 1587.0, 1585.0, 1584.0, 1583.0, 1581.0, 1586.0, 1583.0, 1584.0, 1581.0, 1583.0, 1583.0, 1583.0, 1580.0, 1581.0, 1584.0, 1584.0, 1584.0, 1585.0, 1586.0, 1584.0, 1585.0, 1583.0, 1585.0, 1586.0, 1585.0, 1583.0, 1587.0, 1589.0, 1586.0, 1586.0, 1582.0, 1580.0, 1582.0, 1585.0, 1585.0, 1585.0, 1583.0, 1584.0, 1584.0, 1586.0, 1588.0, 1587.0]
    },
    "slices": {}
  }
}