{
  "AcquisitionMatrixPE": 64,
  "AcquisitionNumber": 1,
  "AcquisitionTime": "11:03:19.910000",
  "BandwidthPerPixelPhaseEncode": 33.967,
  "BaseResolution": 64,
  "CoilCombinationMethod": "Sum of Squares",
  "CoilString": "C:HEA;HEP",
  "ConversionSoftware": "dcm2niix",
  "ConversionSoftwareVersion": "v1.0.20220720",
  "DerivedVendorReportedEchoSpacing": 0.000460005,
  "DeviceSerialNumber": "35193",
  "DwellTime": 3.1e-06,
  "EchoTime": 0.03,
  "EffectiveEchoSpacing": 0.000460005,
  "FlipAngle": 90,
  "HeudiconvVersion": "1.1.6",
  "ImageOrientationPatientDICOM": [0.99981, -0.00349067, -0.0191973, 0.00349003, 0.999994, -6.70118e-05],
  "ImageOrientationText": "Tra>Sag(-1.1)",
  "ImageType": [
    "ORIGINAL",
    "PRIMARY",
    "M",
    "ND",
    "MOSAIC"
],
  "ImagingFrequency": 123.254,
  "InPlanePhaseEncodingDirectionDICOM": "COL",
  "InstitutionAddress": "Xinjiekouwai Street No 19,Beijing,Haidian District,CN,100875",
  "InstitutionName": "Beijing Normal Universtiy/4C3F54/",
  "InstitutionalDepartmentName": "Department",
  "MRAcquisitionType": "2D",
  "MagneticFieldStrength": 3,
  "Manufacturer": "Siemens",
  "ManufacturersModelName": "TrioTim",
  "MatrixCoilMode": "SENSE",
  "Modality": "MR",
  "NonlinearGradientCorrection": false,
  "PartialFourier": 1,
  "PatientPosition": "HFS",
  "PercentPhaseFOV": 100,
  "PercentSampling": 100,
  "PhaseEncodingDirection": "j-",
  "PhaseEncodingSteps": 64,
  "PhaseResolution": 1,
  "PixelBandwidth": 2520,
  "ProcedureStepDescription": "BNU_cst_2015^Guo.TaoMei",
  "ProtocolName": "ge_func_3x3x4_164",
  "PulseSequenceDetails": "%SiemensSeq%\\ep2d_bold",
  "ReceiveCoilName": "HeadMatrix",
  "ReconMatrixPE": 64,
  "RepetitionTime": 2,
  "SAR": 0.1484,
  "ScanOptions": "FS",
  "ScanningSequence": "EP",
  "SequenceName": "*epfid2d1_64",
  "SequenceVariant": "SK",
  "SeriesDescription": "ge_func_3x3x4_164",
  "SeriesNumber": 3,
  "ShimSetting": [-4495, -19440, -9827, 1020, -174, -511, 174, -12],
  "SliceThickness": 4,
  "SliceTiming": [0, 1.0325, 0.06, 1.095, 0.12, 1.155, 0.1825, 1.215, 0.2425, 1.2775, 0.3025, 1.3375, 0.365, 1.3975, 0.425, 1.46, 0.485, 1.52, 0.5475, 1.58, 0.6075, 1.6425, 0.6675, 1.7025, 0.73, 1.7625, 0.79, 1.825, 0.85, 1.885, 0.9125, 1.945, 0.9725],
  "SoftwareVersions": "syngo MR B17",
  "SpacingBetweenSlices": 4.6,
  "StationName": "MRC35193",
  "TaskName": "CognitiveControl",
  "TotalReadoutTime": 0.0289803,
  "TxRefAmp": 352.338,
  "dcmmeta_affine": [
    [-3.1244051456451416, 0.010906343348324299, -0.08830823004245758, 113.20037841796875],
    [0.010908354073762894, 3.124980926513672, 8.731289580232726e-10, -79.68130493164062],
    [-0.059991639107465744, 0.00020941189723089337, 4.599152088165283, -61.552711486816406],
    [0.0, 0.0, 0.0, 1.0]
],
  "dcmmeta_reorient_transform": [
    [0.0, -1.0, 0.0, 63.0],
    [1.0, 0.0, 0.0, 0.0],
    [0.0, 0.0, 1.0, 0.0],
    [0.0, 0.0, 0.0, 1.0]
],
  "dcmmeta_shape": [64, 64, 33, 164],
  "dcmmeta_slice_dim": 2,
  "dcmmeta_version": 0.6,
  "global": {
    "const": {
      "AcquisitionMatrix": [64, 0, 0, 64],
      "AngioFlag": "N",
      "BitsAllocated": 16,
      "BitsStored": 12,
      "Columns": 384,
      "EchoNumbers": 1,
      "EchoTime": 30.0,
      "EchoTrainLength": 1,
      "FlipAngle": 90.0,
      "HighBit": 11,
      "ImageOrientationPatient": [0.99980962083479, -0.0034906732245, -0.0191973249862, 0.00349002993943, 0.99999390758166, -6.70118068e-05],
      "ImagePositionPatient": [-615.53730084051, -615.44411018521, -51.907351751105],
      "ImageType": [
        "ORIGINAL",
        "PRIMARY",
        "M",
        "ND",
        "MOSAIC"
],
      "ImagedNucleus": "1H",
      "ImagingFrequency": 123.253671,
      "InPlanePhaseEncodingDirection": "COL",
      "MRAcquisitionType": "2D",
      "MagneticFieldStrength": 3.0,
      "Manufacturer": "SIEMENS",
      "ManufacturerModelName": "TrioTim",
      "Modality": "MR",
      "NumberOfAverages": 1.0,
      "NumberOfPhaseEncodingSteps": 64,
      "PercentPhaseFieldOfView": 100.0,
      "PercentSampling": 100.0,
      "PerformedProcedureStepStartTime": "105437.656000",
      "PhotometricInterpretation": "MONOCHROME2",
      "PixelBandwidth": 2520.0,
      "PixelRepresentation": 0,
      "PixelSpacing": [3.125, 3.125],
      "ProtocolName": "ge_func_3x3x4_164",
      "RepetitionTime": 2000.0,
      "Rows": 384,
      "SAR": 0.1483998875205,
      "SamplesPerPixel": 1,
      "ScanOptions": "FS",
      "ScanningSequence": "EP",
      "SequenceName": "*epfid2d1_64",
      "SequenceVariant": "SK",
      "SeriesDescription": "ge_func_3x3x4_164",
      "SeriesNumber": 3,
      "SeriesTime": "110415.625000",
      "SliceLocation": -63.714527336504,
      "SliceThickness": 4.0,
      "SmallestImagePixelValue": 0,
      "SoftwareVersions": "syngo MR B17",
      "SpacingBetweenSlices": 4.5999999318178,
      "SpecificCharacterSet": "ISO_IR 100",
      "StudyID": "2",
      "StudyTime": "105437.609000",
      "TransmitCoilName": "Body",
      "VariableFlipAngleFlag": "N",
      "WindowCenterWidthExplanation": "Algo1",
      "dBdt": 0.0},
    "slices": {}
  },
  "time": {
    "samples": {
      "AcquisitionNumber": [1, 2, 3, 4, 5, 6, 7, 8, 9, 10, 11, 12, 13, 14, 15, 16, 17, 18, 19, 20, 21, 22, 23, 24, 25, 26, 27, 28, 29, 30, 31, 32, 33, 34, 35, 36, 37, 38, 39, 40, 41, 42, 43, 44, 45, 46, 47, 48, 49, 50, 51, 52, 53, 54, 55, 56, 57, 58, 59, 60, 61, 62, 63, 64, 65, 66, 67, 68, 69, 70, 71, 72, 73, 74, 75, 76, 77, 78, 79, 80, 81, 82, 83, 84, 85, 86, 87, 88, 89, 90, 91, 92, 93, 94, 95, 96, 97, 98, 99, 100, 101, 102, 103, 104, 105, 106, 107, 108, 109, 110, 111, 112, 113, 114, 115, 116, 117, 118, 119, 120, 121, 122, 123, 124, 125, 126, 127, 128, 129, 130, 131, 132, 133, 134, 135, 136, 137, 138, 139, 140, 141, 142, 143, 144, 145, 146, 147, 148, 149, 150, 151, 152, 153, 154, 155, 156, 157, 158, 159, 160, 161, 162, 163, 164],
      "AcquisitionTime": ["110319.910000", "110321.917500", "110323.925000", "110325.932500", "110327.940000", "110329.950000", "110331.957500", "110333.965000", "110335.972500", "110337.980000", "110339.990000", "110341.997500", "110344.005000", "110346.012500", "110348.022500", "110350.030000", "110352.037500", "110354.045000", "110356.052500", "110358.062500", "110400.070000", "110402.077500", "110404.085000", "110406.092500", "110408.102500", "110410.110000", "110412.117500", "110414.125000", "110416.132500", "110418.142500", "110420.150000", "110422.157500", "110424.165000", "110426.175000", "110428.182500", "110430.190000", "110432.197500", "110434.205000", "110436.215000", "110438.222500", "110440.230000", "110442.237500", "110444.245000", "110446.255000", "110448.262500", "110450.270000", "110452.277500", "110454.287500", "110456.295000", "110458.302500", "110500.310000", "110502.317500", "110504.327500", "110506.335000", "110508.342500", "110510.350000", "110512.357500", "110514.367500", "110516.375000", "110518.382500", "110520.390000", "110522.400000", "110524.407500", "110526.415000", "110528.422500", "110530.430000", "110532.440000", "110534.447500", "110536.455000", "110538.462500", "110540.470000", "110542.480000", "110544.487500", "110546.495000", "110548.502500", "110550.510000", "110552.520000", "110554.527500", "110556.535000", "110558.542500", "110600.552500", "110602.560000", "110604.567500", "110606.575000", "110608.582500", "110610.592500", "110612.600000", "110614.607500", "110616.615000", "110618.622500", "110620.632500", "110622.640000", "110624.647500", "110626.655000", "110628.665000", "110630.672500", "110632.680000", "110634.687500", "110636.695000", "110638.705000", "110640.712500", "110642.720000", "110644.727500", "110646.735000", "110648.745000", "110650.752500", "110652.760000", "110654.767500", "110656.777500", "110658.785000", "110700.792500", "110702.800000", "110704.807500", "110706.817500", "110708.825000", "110710.832500", "110712.840000", "110714.847500", "110716.857500", "110718.865000", "110720.872500", "110722.880000", "110724.887500", "110726.897500", "110728.905000", "110730.912500", "110732.920000", "110734.930000", "110736.937500", "110738.945000", "110740.952500", "110742.960000", "110744.970000", "110746.977500", "110748.985000", "110750.992500", "110753.000000", "110755.010000", "110757.017500", "110759.025000", "110801.032500", "110803.042500", "110805.050000", "110807.057500", "110809.065000", "110811.072500", "110813.082500", "110815.090000", "110817.097500", "110819.105000", "110821.112500", "110823.122500", "110825.130000", "110827.137500", "110829.145000", "110831.155000", "110833.162500", "110835.170000", "110837.177500", "110839.185000", "110841.195000", "110843.202500", "110845.210000", "110847.217500"],
      "ContentTime": ["110415.640000", "110415.640000", "110415.640000", "110415.640000", "110415.640000", "110415.640000", "110415.640000", "110415.656000", "110415.656000", "110415.656000", "110415.656000", "110415.656000", "110415.656000", "110415.656000", "110415.656000", "110415.671000", "110415.671000", "110415.671000", "110415.671000", "110415.671000", "110415.671000", "110415.687000", "110415.687000", "110415.687000", "110415.687000", "110415.687000", "110415.687000", "110455.625000", "110455.625000", "110455.625000", "110455.625000", "110455.625000", "110455.640000", "110455.640000", "110455.640000", "110455.640000", "110455.640000", "110455.640000", "110455.640000", "110455.640000", "110455.640000", "110455.656000", "110455.656000", "110455.656000", "110455.656000", "110455.656000", "110455.656000", "110535.625000", "110535.625000", "110535.625000", "110535.625000", "110535.625000", "110535.625000", "110535.640000", "110535.640000", "110535.640000", "110535.640000", "110535.656000", "110535.656000", "110535.656000", "110535.671000", "110535.671000", "110535.671000", "110535.671000", "110535.671000", "110535.671000", "110535.671000", "110615.625000", "110615.625000", "110615.640000", "110615.640000", "110615.640000", "110615.640000", "110615.640000", "110615.640000", "110615.640000", "110615.656000", "110615.656000", "110615.656000", "110615.656000", "110615.656000", "110615.656000", "110615.656000", "110615.656000", "110615.671000", "110615.671000", "110615.671000", "110655.625000", "110655.625000", "110655.625000", "110655.625000", "110655.625000", "110655.625000", "110655.625000", "110655.640000", "110655.640000", "110655.640000", "110655.640000", "110655.640000", "110655.640000", "110655.640000", "110655.640000", "110655.656000", "110655.656000", "110655.656000", "110655.656000", "110655.656000", "110735.625000", "110735.625000", "110735.625000", "110735.625000", "110735.640000", "110735.640000", "110735.640000", "110735.640000", "110735.640000", "110735.640000", "110735.640000", "110735.640000", "110735.656000", "110735.656000", "110735.656000", "110735.656000", "110735.656000", "110735.656000", "110735.656000", "110735.656000", "110815.625000", "110815.625000", "110815.625000", "110815.625000", "110815.625000", "110815.625000", "110815.640000", "110815.640000", "110815.640000", "110815.640000", "110815.640000", "110815.656000", "110815.656000", "110815.656000", "110815.656000", "110815.656000", "110815.656000", "110815.656000", "110815.656000", "110815.671000", "110848.750000", "110848.750000", "110848.750000", "110848.750000", "110848.750000", "110848.765000", "110848.765000", "110848.765000", "110848.765000", "110848.765000", "110848.765000", "110848.765000", "110848.781000", "110848.781000", "110848.781000", "110848.781000", "110848.781000"],
      "InstanceCreationTime": ["110415.640000", "110415.640000", "110415.640000", "110415.640000", "110415.640000", "110415.640000", "110415.640000", "110415.656000", "110415.656000", "110415.656000", "110415.656000", "110415.656000", "110415.656000", "110415.656000", "110415.656000", "110415.671000", "110415.671000", "110415.671000", "110415.671000", "110415.671000", "110415.671000", "110415.687000", "110415.687000", "110415.687000", "110415.687000", "110415.687000", "110415.687000", "110455.625000", "110455.625000", "110455.625000", "110455.625000", "110455.625000", "110455.640000", "110455.640000", "110455.640000", "110455.640000", "110455.640000", "110455.640000", "110455.640000", "110455.640000", "110455.640000", "110455.656000", "110455.656000", "110455.656000", "110455.656000", "110455.656000", "110455.656000", "110535.625000", "110535.625000", "110535.625000", "110535.625000", "110535.625000", "110535.625000", "110535.640000", "110535.640000", "110535.640000", "110535.640000", "110535.656000", "110535.656000", "110535.656000", "110535.671000", "110535.671000", "110535.671000", "110535.671000", "110535.671000", "110535.671000", "110535.671000", "110615.625000", "110615.625000", "110615.640000", "110615.640000", "110615.640000", "110615.640000", "110615.640000", "110615.640000", "110615.640000", "110615.656000", "110615.656000", "110615.656000", "110615.656000", "110615.656000", "110615.656000", "110615.656000", "110615.656000", "110615.671000", "110615.671000", "110615.671000", "110655.625000", "110655.625000", "110655.625000", "110655.625000", "110655.625000", "110655.625000", "110655.625000", "110655.640000", "110655.640000", "110655.640000", "110655.640000", "110655.640000", "110655.640000", "110655.640000", "110655.640000", "110655.656000", "110655.656000", "110655.656000", "110655.656000", "110655.656000", "110735.625000", "110735.625000", "110735.625000", "110735.625000", "110735.640000", "110735.640000", "110735.640000", "110735.640000", "110735.640000", "110735.640000", "110735.640000", "110735.640000", "110735.656000", "110735.656000", "110735.656000", "110735.656000", "110735.656000", "110735.656000", "110735.656000", "110735.656000", "110815.625000", "110815.625000", "110815.625000", "110815.625000", "110815.625000", "110815.625000", "110815.640000", "110815.640000", "110815.640000", "110815.640000", "110815.640000", "110815.656000", "110815.656000", "110815.656000", "110815.656000", "110815.656000", "110815.656000", "110815.656000", "110815.656000", "110815.671000", "110848.750000", "110848.750000", "110848.750000", "110848.750000", "110848.750000", "110848.765000", "110848.765000", "110848.765000", "110848.765000", "110848.765000", "110848.765000", "110848.765000", "110848.781000", "110848.781000", "110848.781000", "110848.781000", "110848.781000"],
      "InstanceNumber": [1, 2, 3, 4, 5, 6, 7, 8, 9, 10, 11, 12, 13, 14, 15, 16, 17, 18, 19, 20, 21, 22, 23, 24, 25, 26, 27, 28, 29, 30, 31, 32, 33, 34, 35, 36, 37, 38, 39, 40, 41, 42, 43, 44, 45, 46, 47, 48, 49, 50, 51, 52, 53, 54, 55, 56, 57, 58, 59, 60, 61, 62, 63, 64, 65, 66, 67, 68, 69, 70, 71, 72, 73, 74, 75, 76, 77, 78, 79, 80, 81, 82, 83, 84, 85, 86, 87, 88, 89, 90, 91, 92, 93, 94, 95, 96, 97, 98, 99, 100, 101, 102, 103, 104, 105, 106, 107, 108, 109, 110, 111, 112, 113, 114, 115, 116, 117, 118, 119, 120, 121, 122, 123, 124, 125, 126, 127, 128, 129, 130, 131, 132, 133, 134, 135, 136, 137, 138, 139, 140, 141, 142, 143, 144, 145, 146, 147, 148, 149, 150, 151, 152, 153, 154, 155, 156, 157, 158, 159, 160, 161, 162, 163, 164],
      "LargestImagePixelValue": [1831, 1815, 1814, 1800, 1755, 1764, 1765, 1793, 1827, 1788, 1748, 1820, 1777, 1771, 1824, 1834, 1813, 1818, 1818, 1771, 1773, 1813, 1801, 1796, 1829, 1814, 1826, 1814, 1817, 1802, 1812, 1814, 1836, 1774, 1794, 1830, 1822, 1787, 1800, 1761, 1807, 1778, 1791, 1797, 1782, 1796, 1836, 1835, 1776, 1818, 1805, 1806, 1819, 1803, 1787, 1798, 1767, 1778, 1815, 1817, 1780, 1832, 1812, 1795, 1841, 1770, 1814, 1800, 1769, 1792, 1781, 1788, 1769, 1817, 1780, 1792, 1740, 1836, 1788, 1819, 1817, 1845, 1861, 1854, 1816, 1820, 1787, 1752, 1821, 1813, 1784, 1797, 1827, 1786, 1815, 1832, 1805, 1852, 1836, 1846, 1810, 1799, 1811, 1819, 1813, 1819, 1830, 1823, 1815, 1819, 1817, 1821, 1826, 1825, 1830, 1854, 1806, 1842, 1818, 1840, 1822, 1816, 1795, 1792, 1799, 1759, 1807, 1807, 1808, 1828, 1835, 1813, 1808, 1815, 1885, 1843, 1786, 1806, 1805, 1739, 1770, 1770, 1769, 1785, 1793, 1771, 1845, 1813, 1793, 1784, 1809, 1808, 1823, 1843, 1839, 1803, 1773, 1790, 1768, 1794, 1771, 1821, 1817, 1827],
      "WindowCenter": [764.0, 761.0, 761.0, 759.0, 759.0, 759.0, 759.0, 760.0, 760.0, 758.0, 759.0, 759.0, 759.0, 759.0, 760.0, 760.0, 759.0, 759.0, 759.0, 759.0, 759.0, 759.0, 759.0, 759.0, 759.0, 760.0, 760.0, 760.0, 760.0, 759.0, 759.0, 759.0, 760.0, 759.0, 759.0, 759.0, 760.0, 760.0, 760.0, 759.0, 759.0, 758.0, 758.0, 759.0, 760.0, 760.0, 761.0, 761.0, 761.0, 761.0, 761.0, 761.0, 761.0, 761.0, 760.0, 760.0, 760.0, 760.0, 761.0, 761.0, 760.0, 760.0, 760.0, 760.0, 760.0, 760.0, 760.0, 760.0, 760.0, 761.0, 761.0, 761.0, 761.0, 761.0, 760.0, 760.0, 761.0, 763.0, 762.0, 762.0, 761.0, 762.0, 762.0, 761.0, 761.0, 761.0, 761.0, 761.0, 761.0, 761.0, 761.0, 761.0, 761.0, 761.0, 761.0, 760.0, 760.0, 761.0, 761.0, 761.0, 761.0, 760.0, 760.0, 760.0, 761.0, 762.0, 761.0, 762.0, 761.0, 762.0, 762.0, 762.0, 762.0, 761.0, 761.0, 762.0, 761.0, 761.0, 761.0, 762.0, 762.0, 763.0, 762.0, 762.0, 762.0, 761.0, 762.0, 761.0, 762.0, 761.0, 762.0, 762.0, 763.0, 763.0, 763.0, 761.0, 761.0, 761.0, 761.0, 761.0, 760.0, 760.0, 760.0, 761.0, 761.0, 760.0, 761.0, 761.0, 761.0, 761.0, 761.0, 762.0, 762.0, 762.0, 762.0, 762.0, 762.0, 762.0, 762.0, 763.0, 762.0, 762.0, 762.0, 762.0],
      "WindowWidth": [1650.0, 1642.0, 1640.0, 1637.0, 1635.0, 1634.0, 1636.0, 1638.0, 1639.0, 1634.0, 1635.0, 1637.0, 1635.0, 1637.0, 1638.0, 1639.0, 1637.0, 1636.0, 1637.0, 1636.0, 1636.0, 1636.0, 1635.0, 1636.0, 1637.0, 1638.0, 1639.0, 1639.0, 1639.0, 1636.0, 1636.0, 1637.0, 1638.0, 1635.0, 1635.0, 1637.0, 1638.0, 1639.0, 1639.0, 1635.0, 1635.0, 1632.0, 1634.0, 1637.0, 1639.0, 1639.0, 1642.0, 1643.0, 1642.0, 1643.0, 1642.0, 1642.0, 1642.0, 1642.0, 1639.0, 1639.0, 1639.0, 1639.0, 1641.0, 1640.0, 1638.0, 1639.0, 1638.0, 1638.0, 1639.0, 1638.0, 1638.0, 1637.0, 1637.0, 1640.0, 1640.0, 1640.0, 1640.0, 1641.0, 1637.0, 1639.0, 1640.0, 1645.0, 1643.0, 1643.0, 1642.0, 1644.0, 1643.0, 1642.0, 1642.0, 1642.0, 1642.0, 1641.0, 1641.0, 1641.0, 1640.0, 1642.0, 1642.0, 1640.0, 1640.0, 1639.0, 1639.0, 1641.0, 1641.0, 1642.0, 1640.0, 1638.0, 1639.0, 1640.0, 1642.0, 1643.0, 1642.0, 1643.0, 1642.0, 1643.0, 1643.0, 1644.0, 1643.0, 1642.0, 1642.0, 1644.0, 1642.0, 1641.0, 1643.0, 1644.0, 1645.0, 1646.0, 1645.0, 1644.0, 1644.0, 1642.0, 1643.0, 1642.0, 1643.0, 1642.0, 1643.0, 1643.0, 1645.0, 1646.0, 1645.0, 1642.0, 1640.0, 1641.0, 1642.0, 1640.0, 1638.0, 1638.0, 1639.0, 1640.0, 1640.0, 1639.0, 1642.0, 1641.0, 1641.0, 1641.0, 1642.0, 1643.0, 1643.0, 1643.0, 1644.0, 1643.0, 1642.0, 1643.0, 1642.0, 1645.0, 1644.0, 1644.0, 1644.0, 1643.0]
    },
    "slices": {}
  }
}