{
  "AcquisitionMatrixPE": 64,
  "AcquisitionNumber": 1,
  "AcquisitionTime": "10:56:53.037500",
  "BandwidthPerPixelPhaseEncode": 33.967,
  "BaseResolution": 64,
  "CoilCombinationMethod": "Sum of Squares",
  "CoilString": "C:HEA;HEP",
  "ConversionSoftware": "dcm2niix",
  "ConversionSoftwareVersion": "v1.0.20220720",
  "DerivedVendorReportedEchoSpacing": 0.000460005,
  "DeviceSerialNumber": "35193",
  "DwellTime": 3.1e-06,
  "EchoTime": 0.03,
  "EffectiveEchoSpacing": 0.000460005,
  "FlipAngle": 90,
  "HeudiconvVersion": "1.1.6",
  "ImageOrientationPatientDICOM": [0.99981, -0.00349067, -0.0191973, 0.00349003, 0.999994, -6.70118e-05],
  "ImageOrientationText": "Tra>Sag(-1.1)",
  "ImageType": [
    "ORIGINAL",
    "PRIMARY",
    "M",
    "ND",
    "MOSAIC"
],
  "ImagingFrequency": 123.254,
  "InPlanePhaseEncodingDirectionDICOM": "COL",
  "InstitutionAddress": "Xinjiekouwai Street No 19,Beijing,Haidian District,CN,100875",
  "InstitutionName": "Beijing Normal Universtiy/4C3F54/",
  "InstitutionalDepartmentName": "Department",
  "MRAcquisitionType": "2D",
  "MagneticFieldStrength": 3,
  "Manufacturer": "Siemens",
  "ManufacturersModelName": "TrioTim",
  "MatrixCoilMode": "SENSE",
  "Modality": "MR",
  "NonlinearGradientCorrection": false,
  "PartialFourier": 1,
  "PatientPosition": "HFS",
  "PercentPhaseFOV": 100,
  "PercentSampling": 100,
  "PhaseEncodingDirection": "j-",
  "PhaseEncodingSteps": 64,
  "PhaseResolution": 1,
  "PixelBandwidth": 2520,
  "ProcedureStepDescription": "BNU_cst_2015^Guo.TaoMei",
  "ProtocolName": "ge_func_3x3x4_164",
  "PulseSequenceDetails": "%SiemensSeq%\\ep2d_bold",
  "ReceiveCoilName": "HeadMatrix",
  "ReconMatrixPE": 64,
  "RepetitionTime": 2,
  "SAR": 0.1484,
  "ScanOptions": "FS",
  "ScanningSequence": "EP",
  "SequenceName": "*epfid2d1_64",
  "SequenceVariant": "SK",
  "SeriesDescription": "ge_func_3x3x4_164",
  "SeriesNumber": 2,
  "ShimSetting": [-4495, -19440, -9827, 1020, -174, -511, 174, -12],
  "SliceThickness": 4,
  "SliceTiming": [0, 1.035, 0.0625, 1.095, 0.1225, 1.1575, 0.1825, 1.2175, 0.245, 1.2775, 0.305, 1.34, 0.365, 1.4, 0.4275, 1.46, 0.4875, 1.5225, 0.5475, 1.5825, 0.61, 1.6425, 0.67, 1.705, 0.73, 1.765, 0.7925, 1.825, 0.8525, 1.8875, 0.9125, 1.9475, 0.975],
  "SoftwareVersions": "syngo MR B17",
  "SpacingBetweenSlices": 4.6,
  "StationName": "MRC35193",
  "TaskName": "CognitiveControl",
  "TotalReadoutTime": 0.0289803,
  "TxRefAmp": 352.338,
  "dcmmeta_affine": [
    [-3.1244051456451416, 0.010906343348324299, -0.08830823004245758, 113.20037841796875],
    [0.010908354073762894, 3.124980926513672, 8.731289580232726e-10, -79.68130493164062],
    [-0.059991639107465744, 0.00020941189723089337, 4.599152088165283, -61.552711486816406],
    [0.0, 0.0, 0.0, 1.0]
],
  "dcmmeta_reorient_transform": [
    [0.0, -1.0, 0.0, 63.0],
    [1.0, 0.0, 0.0, 0.0],
    [0.0, 0.0, 1.0, 0.0],
    [0.0, 0.0, 0.0, 1.0]
],
  "dcmmeta_shape": [64, 64, 33, 164],
  "dcmmeta_slice_dim": 2,
  "dcmmeta_version": 0.6,
  "global": {
    "const": {
      "AcquisitionMatrix": [64, 0, 0, 64],
      "AngioFlag": "N",
      "BitsAllocated": 16,
      "BitsStored": 12,
      "Columns": 384,
      "EchoNumbers": 1,
      "EchoTime": 30.0,
      "EchoTrainLength": 1,
      "FlipAngle": 90.0,
      "HighBit": 11,
      "ImageOrientationPatient": [0.99980962083479, -0.0034906732245, -0.0191973249862, 0.00349002993943, 0.99999390758166, -6.70118068e-05],
      "ImagePositionPatient": [-615.53730084051, -615.44411018521, -51.907351751105],
      "ImageType": [
        "ORIGINAL",
        "PRIMARY",
        "M",
        "ND",
        "MOSAIC"
],
      "ImagedNucleus": "1H",
      "ImagingFrequency": 123.253667,
      "InPlanePhaseEncodingDirection": "COL",
      "MRAcquisitionType": "2D",
      "MagneticFieldStrength": 3.0,
      "Manufacturer": "SIEMENS",
      "ManufacturerModelName": "TrioTim",
      "Modality": "MR",
      "NumberOfAverages": 1.0,
      "NumberOfPhaseEncodingSteps": 64,
      "PercentPhaseFieldOfView": 100.0,
      "PercentSampling": 100.0,
      "PerformedProcedureStepStartTime": "105437.656000",
      "PhotometricInterpretation": "MONOCHROME2",
      "PixelBandwidth": 2520.0,
      "PixelRepresentation": 0,
      "PixelSpacing": [3.125, 3.125],
      "ProtocolName": "ge_func_3x3x4_164",
      "RepetitionTime": 2000.0,
      "Rows": 384,
      "SAR": 0.1483998875205,
      "SamplesPerPixel": 1,
      "ScanOptions": "FS",
      "ScanningSequence": "EP",
      "SequenceName": "*epfid2d1_64",
      "SequenceVariant": "SK",
      "SeriesDescription": "ge_func_3x3x4_164",
      "SeriesNumber": 2,
      "SeriesTime": "105742.140000",
      "SliceLocation": -63.714527336504,
      "SliceThickness": 4.0,
      "SmallestImagePixelValue": 0,
      "SoftwareVersions": "syngo MR B17",
      "SpacingBetweenSlices": 4.5999999318178,
      "SpecificCharacterSet": "ISO_IR 100",
      "StudyID": "2",
      "StudyTime": "105437.609000",
      "TransmitCoilName": "Body",
      "VariableFlipAngleFlag": "N",
      "WindowCenterWidthExplanation": "Algo1",
      "dBdt": 0.0},
    "slices": {}
  },
  "time": {
    "samples": {
      "AcquisitionNumber": [1, 2, 3, 4, 5, 6, 7, 8, 9, 10, 11, 12, 13, 14, 15, 16, 17, 18, 19, 20, 21, 22, 23, 24, 25, 26, 27, 28, 29, 30, 31, 32, 33, 34, 35, 36, 37, 38, 39, 40, 41, 42, 43, 44, 45, 46, 47, 48, 49, 50, 51, 52, 53, 54, 55, 56, 57, 58, 59, 60, 61, 62, 63, 64, 65, 66, 67, 68, 69, 70, 71, 72, 73, 74, 75, 76, 77, 78, 79, 80, 81, 82, 83, 84, 85, 86, 87, 88, 89, 90, 91, 92, 93, 94, 95, 96, 97, 98, 99, 100, 101, 102, 103, 104, 105, 106, 107, 108, 109, 110, 111, 112, 113, 114, 115, 116, 117, 118, 119, 120, 121, 122, 123, 124, 125, 126, 127, 128, 129, 130, 131, 132, 133, 134, 135, 136, 137, 138, 139, 140, 141, 142, 143, 144, 145, 146, 147, 148, 149, 150, 151, 152, 153, 154, 155, 156, 157, 158, 159, 160, 161, 162, 163, 164],
      "AcquisitionTime": ["105653.037500", "105655.045000", "105657.055000", "105659.062500", "105701.070000", "105703.077500", "105705.087500", "105707.095000", "105709.102500", "105711.110000", "105713.117500", "105715.127500", "105717.135000", "105719.142500", "105721.150000", "105723.157500", "105725.167500", "105727.175000", "105729.182500", "105731.190000", "105733.200000", "105735.207500", "105737.215000", "105739.222500", "105741.230000", "105743.240000", "105745.247500", "105747.255000", "105749.262500", "105751.270000", "105753.280000", "105755.287500", "105757.295000", "105759.302500", "105801.312500", "105803.320000", "105805.327500", "105807.335000", "105809.342500", "105811.352500", "105813.360000", "105815.367500", "105817.375000", "105819.382500", "105821.392500", "105823.400000", "105825.407500", "105827.415000", "105829.425000", "105831.432500", "105833.440000", "105835.447500", "105837.455000", "105839.465000", "105841.472500", "105843.480000", "105845.487500", "105847.495000", "105849.505000", "105851.512500", "105853.520000", "105855.527500", "105857.535000", "105859.545000", "105901.552500", "105903.560000", "105905.567500", "105907.577500", "105909.585000", "105911.592500", "105913.600000", "105915.607500", "105917.617500", "105919.625000", "105921.632500", "105923.640000", "105925.647500", "105927.657500", "105929.665000", "105931.672500", "105933.680000", "105935.690000", "105937.697500", "105939.705000", "105941.712500", "105943.720000", "105945.730000", "105947.737500", "105949.745000", "105951.752500", "105953.760000", "105955.770000", "105957.777500", "105959.785000", "110001.792500", "110003.802500", "110005.810000", "110007.817500", "110009.825000", "110011.832500", "110013.842500", "110015.850000", "110017.857500", "110019.865000", "110021.872500", "110023.882500", "110025.890000", "110027.897500", "110029.905000", "110031.912500", "110033.922500", "110035.930000", "110037.937500", "110039.945000", "110041.955000", "110043.962500", "110045.970000", "110047.977500", "110049.985000", "110051.995000", "110054.002500", "110056.010000", "110058.017500", "110100.025000", "110102.035000", "110104.042500", "110106.050000", "110108.057500", "110110.067500", "110112.075000", "110114.082500", "110116.090000", "110118.097500", "110120.107500", "110122.115000", "110124.122500", "110126.130000", "110128.137500", "110130.147500", "110132.155000", "110134.162500", "110136.170000", "110138.180000", "110140.187500", "110142.195000", "110144.202500", "110146.210000", "110148.220000", "110150.227500", "110152.235000", "110154.242500", "110156.250000", "110158.260000", "110200.267500", "110202.275000", "110204.282500", "110206.290000", "110208.300000", "110210.307500", "110212.315000", "110214.322500", "110216.332500", "110218.340000", "110220.347500"],
      "ContentTime": ["105742.140000", "105742.140000", "105742.140000", "105742.156000", "105742.156000", "105742.156000", "105742.156000", "105742.171000", "105742.171000", "105742.171000", "105742.171000", "105742.187000", "105742.187000", "105742.187000", "105742.187000", "105742.187000", "105742.187000", "105742.187000", "105742.187000", "105742.203000", "105742.203000", "105742.203000", "105742.203000", "105822.140000", "105822.140000", "105822.140000", "105822.140000", "105822.140000", "105822.140000", "105822.187000", "105822.203000", "105822.203000", "105822.203000", "105822.218000", "105822.218000", "105822.218000", "105822.218000", "105822.218000", "105822.218000", "105822.218000", "105822.218000", "105822.234000", "105822.234000", "105902.140000", "105902.140000", "105902.156000", "105902.156000", "105902.156000", "105902.156000", "105902.156000", "105902.156000", "105902.156000", "105902.171000", "105902.171000", "105902.171000", "105902.171000", "105902.171000", "105902.171000", "105902.171000", "105902.171000", "105902.187000", "105902.187000", "105902.187000", "105942.140000", "105942.140000", "105942.140000", "105942.140000", "105942.140000", "105942.156000", "105942.156000", "105942.156000", "105942.156000", "105942.156000", "105942.156000", "105942.156000", "105942.171000", "105942.171000", "105942.171000", "105942.187000", "105942.187000", "105942.187000", "105942.187000", "105942.187000", "110002.140000", "110002.140000", "110002.140000", "110002.156000", "110002.156000", "110002.156000", "110002.156000", "110002.171000", "110002.171000", "110002.171000", "110042.140000", "110042.140000", "110042.140000", "110042.140000", "110042.140000", "110042.140000", "110042.140000", "110042.156000", "110042.156000", "110042.156000", "110042.156000", "110042.156000", "110042.156000", "110042.156000", "110042.156000", "110042.171000", "110042.171000", "110042.171000", "110042.171000", "110042.171000", "110122.140000", "110122.140000", "110122.140000", "110122.140000", "110122.140000", "110122.140000", "110122.140000", "110122.156000", "110122.156000", "110122.156000", "110122.156000", "110122.156000", "110122.156000", "110122.156000", "110122.156000", "110122.171000", "110122.171000", "110122.171000", "110122.171000", "110122.171000", "110202.140000", "110202.140000", "110202.140000", "110202.140000", "110202.156000", "110202.156000", "110202.156000", "110202.156000", "110202.156000", "110202.156000", "110202.156000", "110202.156000", "110202.171000", "110202.171000", "110202.171000", "110202.171000", "110202.171000", "110202.171000", "110202.171000", "110202.171000", "110222.437000", "110222.453000", "110222.453000", "110222.453000", "110222.453000", "110222.453000", "110222.453000", "110222.468000", "110222.468000", "110222.468000", "110222.468000"],
      "InstanceCreationTime": ["105742.140000", "105742.140000", "105742.140000", "105742.156000", "105742.156000", "105742.156000", "105742.156000", "105742.171000", "105742.171000", "105742.171000", "105742.171000", "105742.187000", "105742.187000", "105742.187000", "105742.187000", "105742.187000", "105742.187000", "105742.187000", "105742.187000", "105742.203000", "105742.203000", "105742.203000", "105742.203000", "105822.140000", "105822.140000", "105822.140000", "105822.140000", "105822.140000", "105822.140000", "105822.187000", "105822.203000", "105822.203000", "105822.203000", "105822.218000", "105822.218000", "105822.218000", "105822.218000", "105822.218000", "105822.218000", "105822.218000", "105822.218000", "105822.234000", "105822.234000", "105902.140000", "105902.140000", "105902.156000", "105902.156000", "105902.156000", "105902.156000", "105902.156000", "105902.156000", "105902.156000", "105902.171000", "105902.171000", "105902.171000", "105902.171000", "105902.171000", "105902.171000", "105902.171000", "105902.171000", "105902.187000", "105902.187000", "105902.187000", "105942.140000", "105942.140000", "105942.140000", "105942.140000", "105942.140000", "105942.156000", "105942.156000", "105942.156000", "105942.156000", "105942.156000", "105942.156000", "105942.156000", "105942.171000", "105942.171000", "105942.171000", "105942.187000", "105942.187000", "105942.187000", "105942.187000", "105942.187000", "110002.140000", "110002.140000", "110002.140000", "110002.156000", "110002.156000", "110002.156000", "110002.156000", "110002.171000", "110002.171000", "110002.171000", "110042.140000", "110042.140000", "110042.140000", "110042.140000", "110042.140000", "110042.140000", "110042.140000", "110042.156000", "110042.156000", "110042.156000", "110042.156000", "110042.156000", "110042.156000", "110042.156000", "110042.156000", "110042.171000", "110042.171000", "110042.171000", "110042.171000", "110042.171000", "110122.140000", "110122.140000", "110122.140000", "110122.140000", "110122.140000", "110122.140000", "110122.140000", "110122.156000", "110122.156000", "110122.156000", "110122.156000", "110122.156000", "110122.156000", "110122.156000", "110122.156000", "110122.171000", "110122.171000", "110122.171000", "110122.171000", "110122.171000", "110202.140000", "110202.140000", "110202.140000", "110202.140000", "110202.156000", "110202.156000", "110202.156000", "110202.156000", "110202.156000", "110202.156000", "110202.156000", "110202.156000", "110202.171000", "110202.171000", "110202.171000", "110202.171000", "110202.171000", "110202.171000", "110202.171000", "110202.171000", "110222.437000", "110222.453000", "110222.453000", "110222.453000", "110222.453000", "110222.453000", "110222.453000", "110222.468000", "110222.468000", "110222.468000", "110222.468000"],
      "InstanceNumber": [1, 2, 3, 4, 5, 6, 7, 8, 9, 10, 11, 12, 13, 14, 15, 16, 17, 18, 19, 20, 21, 22, 23, 24, 25, 26, 27, 28, 29, 30, 31, 32, 33, 34, 35, 36, 37, 38, 39, 40, 41, 42, 43, 44, 45, 46, 47, 48, 49, 50, 51, 52, 53, 54, 55, 56, 57, 58, 59, 60, 61, 62, 63, 64, 65, 66, 67, 68, 69, 70, 71, 72, 73, 74, 75, 76, 77, 78, 79, 80, 81, 82, 83, 84, 85, 86, 87, 88, 89, 90, 91, 92, 93, 94, 95, 96, 97, 98, 99, 100, 101, 102, 103, 104, 105, 106, 107, 108, 109, 110, 111, 112, 113, 114, 115, 116, 117, 118, 119, 120, 121, 122, 123, 124, 125, 126, 127, 128, 129, 130, 131, 132, 133, 134, 135, 136, 137, 138, 139, 140, 141, 142, 143, 144, 145, 146, 147, 148, 149, 150, 151, 152, 153, 154, 155, 156, 157, 158, 159, 160, 161, 162, 163, 164],
      "LargestImagePixelValue": [1947, 1899, 1888, 1872, 1884, 1890, 1906, 1906, 1917, 1890, 1902, 1882, 1878, 1885, 1901, 1866, 1907, 1878, 1898, 1900, 1891, 1901, 1914, 1909, 1888, 1861, 1856, 1855, 1895, 1869, 1879, 1894, 1863, 1866, 1855, 1883, 1882, 1903, 1902, 1890, 1887, 1895, 1915, 1897, 1879, 1848, 1877, 1881, 1834, 1860, 1878, 1898, 1871, 1876, 1874, 1875, 1843, 1852, 1851, 1855, 1873, 1879, 1854, 1863, 1860, 1878, 1898, 1882, 1857, 1877, 1879, 1853, 1849, 1834, 1823, 1831, 1835, 1855, 1835, 1833, 1840, 1836, 1840, 1845, 1820, 1822, 1829, 1811, 1821, 1823, 1853, 1811, 1826, 1822, 1825, 1820, 1829, 1823, 1822, 1819, 1823, 1818, 1816, 1816, 1825, 1814, 1820, 1815, 1796, 1816, 1813, 1799, 1820, 1820, 1816, 1802, 1832, 1813, 1817, 1797, 1810, 1789, 1811, 1804, 1806, 1810, 1819, 1821, 1775, 1788, 1780, 1836, 1792, 1800, 1798, 1778, 1810, 1822, 1806, 1801, 1800, 1773, 1797, 1873, 1837, 1774, 1778, 1812, 1774, 1772, 1820, 1777, 1772, 1834, 1865, 1797, 1831, 1841, 1845, 1794, 1808, 1832, 1809, 1799],
      "WindowCenter": [762.0, 759.0, 759.0, 760.0, 762.0, 762.0, 762.0, 762.0, 762.0, 762.0, 762.0, 761.0, 761.0, 762.0, 762.0, 762.0, 760.0, 759.0, 760.0, 760.0, 760.0, 761.0, 761.0, 762.0, 761.0, 761.0, 761.0, 761.0, 762.0, 760.0, 760.0, 760.0, 759.0, 759.0, 760.0, 761.0, 762.0, 762.0, 762.0, 761.0, 761.0, 760.0, 761.0, 761.0, 761.0, 761.0, 761.0, 762.0, 761.0, 762.0, 762.0, 762.0, 761.0, 762.0, 762.0, 761.0, 760.0, 760.0, 760.0, 761.0, 762.0, 761.0, 761.0, 761.0, 761.0, 761.0, 761.0, 761.0, 761.0, 762.0, 761.0, 761.0, 761.0, 761.0, 761.0, 761.0, 762.0, 762.0, 762.0, 762.0, 762.0, 762.0, 762.0, 762.0, 762.0, 762.0, 762.0, 761.0, 761.0, 761.0, 762.0, 762.0, 762.0, 762.0, 762.0, 763.0, 763.0, 762.0, 761.0, 761.0, 761.0, 762.0, 762.0, 762.0, 762.0, 761.0, 761.0, 761.0, 761.0, 760.0, 761.0, 761.0, 761.0, 762.0, 762.0, 761.0, 760.0, 760.0, 761.0, 760.0, 760.0, 760.0, 761.0, 761.0, 761.0, 760.0, 761.0, 762.0, 760.0, 760.0, 760.0, 761.0, 760.0, 761.0, 760.0, 759.0, 760.0, 760.0, 761.0, 761.0, 762.0, 761.0, 760.0, 761.0, 761.0, 761.0, 761.0, 761.0, 761.0, 761.0, 762.0, 761.0, 761.0, 761.0, 761.0, 761.0, 761.0, 761.0, 763.0, 763.0, 762.0, 762.0, 762.0, 762.0],
      "WindowWidth": [1645.0, 1637.0, 1637.0, 1640.0, 1644.0, 1644.0, 1645.0, 1643.0, 1647.0, 1646.0, 1645.0, 1643.0, 1642.0, 1645.0, 1645.0, 1643.0, 1640.0, 1637.0, 1640.0, 1640.0, 1640.0, 1641.0, 1643.0, 1645.0, 1643.0, 1641.0, 1641.0, 1643.0, 1643.0, 1640.0, 1639.0, 1639.0, 1637.0, 1637.0, 1639.0, 1642.0, 1643.0, 1645.0, 1645.0, 1642.0, 1641.0, 1640.0, 1641.0, 1641.0, 1640.0, 1640.0, 1642.0, 1644.0, 1642.0, 1643.0, 1644.0, 1644.0, 1642.0, 1644.0, 1645.0, 1642.0, 1639.0, 1640.0, 1640.0, 1642.0, 1643.0, 1641.0, 1640.0, 1641.0, 1641.0, 1641.0, 1642.0, 1642.0, 1642.0, 1643.0, 1643.0, 1642.0, 1641.0, 1641.0, 1640.0, 1642.0, 1643.0, 1645.0, 1645.0, 1644.0, 1644.0, 1643.0, 1643.0, 1644.0, 1645.0, 1644.0, 1643.0, 1642.0, 1642.0, 1642.0, 1644.0, 1644.0, 1643.0, 1644.0, 1645.0, 1646.0, 1646.0, 1645.0, 1643.0, 1642.0, 1641.0, 1643.0, 1645.0, 1645.0, 1643.0, 1641.0, 1641.0, 1641.0, 1640.0, 1640.0, 1640.0, 1641.0, 1642.0, 1645.0, 1644.0, 1641.0, 1640.0, 1639.0, 1640.0, 1639.0, 1640.0, 1640.0, 1642.0, 1643.0, 1641.0, 1639.0, 1641.0, 1644.0, 1640.0, 1640.0, 1638.0, 1641.0, 1639.0, 1641.0, 1639.0, 1637.0, 1638.0, 1639.0, 1641.0, 1643.0, 1643.0, 1641.0, 1639.0, 1642.0, 1642.0, 1641.0, 1641.0, 1641.0, 1641.0, 1641.0, 1643.0, 1642.0, 1642.0, 1642.0, 1643.0, 1641.0, 1642.0, 1643.0, 1646.0, 1645.0, 1644.0, 1644.0, 1643.0, 1643.0]
    },
    "slices": {}
  }
}