{
  "AcquisitionMatrixPE": 64,
  "AcquisitionNumber": 1,
  "AcquisitionTime": "13:24:57.262500",
  "BandwidthPerPixelPhaseEncode": 33.967,
  "BaseResolution": 64,
  "CoilCombinationMethod": "Sum of Squares",
  "CoilString": "C:HEA;HEP",
  "ConversionSoftware": "dcm2niix",
  "ConversionSoftwareVersion": "v1.0.20220720",
  "DerivedVendorReportedEchoSpacing": 0.000460005,
  "DeviceSerialNumber": "35193",
  "DwellTime": 3.1e-06,
  "EchoTime": 0.03,
  "EffectiveEchoSpacing": 0.000460005,
  "FlipAngle": 90,
  "HeudiconvVersion": "1.1.6",
  "ImageOrientationPatientDICOM": [0.999998, 0, -0.00174533, 0, 1, 0],
  "ImageOrientationText": "Tra>Sag(-0.1)",
  "ImageType": [
    "ORIGINAL",
    "PRIMARY",
    "M",
    "ND",
    "MOSAIC"
],
  "ImagingFrequency": 123.254,
  "InPlanePhaseEncodingDirectionDICOM": "COL",
  "InstitutionAddress": "Xinjiekouwai Street No 19,Beijing,Haidian District,CN,100875",
  "InstitutionName": "Beijing Normal Universtiy/2773C4/",
  "InstitutionalDepartmentName": "Department",
  "MRAcquisitionType": "2D",
  "MagneticFieldStrength": 3,
  "Manufacturer": "Siemens",
  "ManufacturersModelName": "TrioTim",
  "MatrixCoilMode": "SENSE",
  "Modality": "MR",
  "NonlinearGradientCorrection": false,
  "PartialFourier": 1,
  "PatientPosition": "HFS",
  "PercentPhaseFOV": 100,
  "PercentSampling": 100,
  "PhaseEncodingDirection": "j-",
  "PhaseEncodingSteps": 64,
  "PhaseResolution": 1,
  "PixelBandwidth": 2520,
  "ProcedureStepDescription": "BNU_cst_2015^Guo.TaoMei",
  "ProtocolName": "ge_func_3x3x4_164",
  "PulseSequenceDetails": "%SiemensSeq%\\ep2d_bold",
  "ReceiveCoilName": "HeadMatrix",
  "ReconMatrixPE": 64,
  "RepetitionTime": 2,
  "SAR": 0.122217,
  "ScanOptions": "FS",
  "ScanningSequence": "EP",
  "SequenceName": "*epfid2d1_64",
  "SequenceVariant": "SK",
  "SeriesDescription": "ge_func_3x3x4_164",
  "SeriesNumber": 5,
  "ShimSetting": [-4452, -19403, -9827, 1080, -74, -358, -135, -15],
  "SliceThickness": 4,
  "SliceTiming": [0, 1.035, 0.0625, 1.095, 0.1225, 1.1575, 0.1825, 1.2175, 0.245, 1.2775, 0.305, 1.34, 0.365, 1.4, 0.4275, 1.46, 0.4875, 1.5225, 0.5475, 1.5825, 0.61, 1.6425, 0.67, 1.705, 0.73, 1.765, 0.7925, 1.825, 0.8525, 1.8875, 0.9125, 1.9475, 0.975],
  "SoftwareVersions": "syngo MR B17",
  "SpacingBetweenSlices": 4.6,
  "StationName": "MRC35193",
  "TaskName": "LanguageControl",
  "TotalReadoutTime": 0.0289803,
  "TxRefAmp": 328.321,
  "dcmmeta_affine": [
    [-3.124995231628418, 0.0, -0.00802851002663374, 100.12830352783203],
    [0.0, 3.125, 0.0, -84.73042297363281],
    [-0.005454150959849358, 0.0, 4.5999932289123535, -69.37716674804688],
    [0.0, 0.0, 0.0, 1.0]
],
  "dcmmeta_reorient_transform": [
    [0.0, -1.0, 0.0, 63.0],
    [1.0, 0.0, 0.0, 0.0],
    [0.0, 0.0, 1.0, 0.0],
    [0.0, 0.0, 0.0, 1.0]
],
  "dcmmeta_shape": [64, 64, 33, 164],
  "dcmmeta_slice_dim": 2,
  "dcmmeta_version": 0.6,
  "global": {
    "const": {
      "AcquisitionMatrix": [64, 0, 0, 64],
      "AngioFlag": "N",
      "BitsAllocated": 16,
      "BitsStored": 12,
      "Columns": 384,
      "EchoNumbers": 1,
      "EchoTime": 30.0,
      "EchoTrainLength": 1,
      "FlipAngle": 90.0,
      "HighBit": 11,
      "ImageOrientationPatient": [0.99999847691345, 0.0, -0.0017453282742, 0.0, 1.0, 0.0],
      "ImagePositionPatient": [-600.1275423085, -612.14457798004, -68.504499812833],
      "ImageType": [
        "ORIGINAL",
        "PRIMARY",
        "M",
        "ND",
        "MOSAIC"
],
      "ImagedNucleus": "1H",
      "ImagingFrequency": 123.253639,
      "InPlanePhaseEncodingDirection": "COL",
      "MRAcquisitionType": "2D",
      "MagneticFieldStrength": 3.0,
      "Manufacturer": "SIEMENS",
      "ManufacturerModelName": "TrioTim",
      "Modality": "MR",
      "NumberOfAverages": 1.0,
      "NumberOfPhaseEncodingSteps": 64,
      "PercentPhaseFieldOfView": 100.0,
      "PercentSampling": 100.0,
      "PerformedProcedureStepStartTime": "125420.546000",
      "PhotometricInterpretation": "MONOCHROME2",
      "PixelBandwidth": 2520.0,
      "PixelRepresentation": 0,
      "PixelSpacing": [3.125, 3.125],
      "ProtocolName": "ge_func_3x3x4_164",
      "RepetitionTime": 2000.0,
      "Rows": 384,
      "SAR": 0.12221693232527,
      "SamplesPerPixel": 1,
      "ScanOptions": "FS",
      "ScanningSequence": "EP",
      "SequenceName": "*epfid2d1_64",
      "SequenceVariant": "SK",
      "SeriesDescription": "ge_func_3x3x4_164",
      "SeriesNumber": 5,
      "SeriesTime": "132557.812000",
      "SliceLocation": -69.551815042258,
      "SliceThickness": 4.0,
      "SmallestImagePixelValue": 0,
      "SoftwareVersions": "syngo MR B17",
      "SpacingBetweenSlices": 4.5999999966919,
      "SpecificCharacterSet": "ISO_IR 100",
      "StudyID": "1",
      "StudyTime": "125420.484000",
      "TransmitCoilName": "Body",
      "VariableFlipAngleFlag": "N",
      "WindowCenterWidthExplanation": "Algo1",
      "dBdt": 0.0},
    "slices": {}
  },
  "time": {
    "samples": {
      "AcquisitionNumber": [1, 2, 3, 4, 5, 6, 7, 8, 9, 10, 11, 12, 13, 14, 15, 16, 17, 18, 19, 20, 21, 22, 23, 24, 25, 26, 27, 28, 29, 30, 31, 32, 33, 34, 35, 36, 37, 38, 39, 40, 41, 42, 43, 44, 45, 46, 47, 48, 49, 50, 51, 52, 53, 54, 55, 56, 57, 58, 59, 60, 61, 62, 63, 64, 65, 66, 67, 68, 69, 70, 71, 72, 73, 74, 75, 76, 77, 78, 79, 80, 81, 82, 83, 84, 85, 86, 87, 88, 89, 90, 91, 92, 93, 94, 95, 96, 97, 98, 99, 100, 101, 102, 103, 104, 105, 106, 107, 108, 109, 110, 111, 112, 113, 114, 115, 116, 117, 118, 119, 120, 121, 122, 123, 124, 125, 126, 127, 128, 129, 130, 131, 132, 133, 134, 135, 136, 137, 138, 139, 140, 141, 142, 143, 144, 145, 146, 147, 148, 149, 150, 151, 152, 153, 154, 155, 156, 157, 158, 159, 160, 161, 162, 163, 164],
      "AcquisitionTime": ["132457.262500", "132459.270000", "132501.280000", "132503.287500", "132505.295000", "132507.302500", "132509.312500", "132511.320000", "132513.327500", "132515.335000", "132517.342500", "132519.352500", "132521.360000", "132523.367500", "132525.375000", "132527.382500", "132529.392500", "132531.400000", "132533.407500", "132535.415000", "132537.422500", "132539.432500", "132541.440000", "132543.447500", "132545.455000", "132547.465000", "132549.472500", "132551.480000", "132553.487500", "132555.495000", "132557.505000", "132559.512500", "132601.520000", "132603.527500", "132605.535000", "132607.545000", "132609.552500", "132611.560000", "132613.567500", "132615.577500", "132617.585000", "132619.592500", "132621.600000", "132623.607500", "132625.617500", "132627.625000", "132629.632500", "132631.640000", "132633.647500", "132635.657500", "132637.665000", "132639.672500", "132641.680000", "132643.690000", "132645.697500", "132647.705000", "132649.712500", "132651.720000", "132653.730000", "132655.737500", "132657.745000", "132659.752500", "132701.760000", "132703.770000", "132705.777500", "132707.785000", "132709.792500", "132711.800000", "132713.810000", "132715.817500", "132717.825000", "132719.832500", "132721.842500", "132723.850000", "132725.857500", "132727.865000", "132729.872500", "132731.882500", "132733.890000", "132735.897500", "132737.905000", "132739.912500", "132741.922500", "132743.930000", "132745.937500", "132747.945000", "132749.955000", "132751.962500", "132753.970000", "132755.977500", "132757.985000", "132759.995000", "132802.002500", "132804.010000", "132806.017500", "132808.025000", "132810.035000", "132812.042500", "132814.050000", "132816.057500", "132818.067500", "132820.075000", "132822.082500", "132824.090000", "132826.097500", "132828.107500", "132830.115000", "132832.122500", "132834.130000", "132836.137500", "132838.147500", "132840.155000", "132842.162500", "132844.170000", "132846.177500", "132848.187500", "132850.195000", "132852.202500", "132854.210000", "132856.220000", "132858.227500", "132900.235000", "132902.242500", "132904.250000", "132906.260000", "132908.267500", "132910.275000", "132912.282500", "132914.290000", "132916.300000", "132918.307500", "132920.315000", "132922.322500", "132924.332500", "132926.340000", "132928.347500", "132930.355000", "132932.362500", "132934.372500", "132936.380000", "132938.387500", "132940.395000", "132942.402500", "132944.412500", "132946.420000", "132948.427500", "132950.435000", "132952.445000", "132954.452500", "132956.460000", "132958.467500", "133000.475000", "133002.485000", "133004.492500", "133006.500000", "133008.507500", "133010.515000", "133012.525000", "133014.532500", "133016.540000", "133018.547500", "133020.557500", "133022.565000", "133024.572500"],
      "ContentTime": ["132557.828000", "132557.828000", "132557.828000", "132557.828000", "132557.828000", "132557.828000", "132557.828000", "132557.843000", "132557.843000", "132557.843000", "132557.843000", "132557.843000", "132557.843000", "132557.843000", "132557.843000", "132557.859000", "132557.859000", "132557.859000", "132557.859000", "132557.859000", "132557.859000", "132557.875000", "132557.875000", "132557.875000", "132557.875000", "132557.890000", "132557.890000", "132557.890000", "132557.890000", "132637.796000", "132637.796000", "132637.796000", "132637.812000", "132637.812000", "132637.812000", "132637.812000", "132637.812000", "132637.828000", "132637.828000", "132637.828000", "132637.843000", "132637.843000", "132637.843000", "132637.843000", "132637.843000", "132637.843000", "132637.843000", "132637.843000", "132637.859000", "132717.796000", "132717.796000", "132717.796000", "132717.812000", "132717.812000", "132717.812000", "132717.812000", "132717.812000", "132717.828000", "132717.828000", "132717.828000", "132717.828000", "132717.843000", "132717.843000", "132717.843000", "132717.843000", "132717.843000", "132717.843000", "132717.843000", "132717.843000", "132757.796000", "132757.796000", "132757.796000", "132757.812000", "132757.812000", "132757.812000", "132757.812000", "132757.812000", "132757.812000", "132757.812000", "132757.812000", "132757.828000", "132757.828000", "132757.828000", "132757.828000", "132757.828000", "132757.828000", "132757.828000", "132757.828000", "132757.843000", "132837.796000", "132837.796000", "132837.796000", "132837.812000", "132837.812000", "132837.812000", "132837.828000", "132837.828000", "132837.828000", "132837.828000", "132837.828000", "132837.828000", "132837.843000", "132837.843000", "132837.843000", "132837.843000", "132837.843000", "132837.843000", "132837.843000", "132837.843000", "132917.796000", "132917.796000", "132917.796000", "132917.812000", "132917.812000", "132917.812000", "132917.812000", "132917.812000", "132917.812000", "132917.812000", "132917.812000", "132917.828000", "132917.828000", "132917.828000", "132917.828000", "132917.828000", "132917.828000", "132917.828000", "132917.843000", "132917.843000", "132957.796000", "132957.812000", "132957.812000", "132957.812000", "132957.812000", "132957.812000", "132957.812000", "132957.812000", "132957.812000", "132957.828000", "132957.828000", "132957.828000", "132957.828000", "132957.828000", "132957.828000", "132957.828000", "132957.828000", "132957.843000", "132957.843000", "132957.843000", "133026.718000", "133026.734000", "133026.734000", "133026.734000", "133026.734000", "133026.734000", "133026.734000", "133026.750000", "133026.750000", "133026.750000", "133026.750000", "133026.750000", "133026.750000", "133026.750000", "133026.750000"],
      "InstanceCreationTime": ["132557.828000", "132557.828000", "132557.828000", "132557.828000", "132557.828000", "132557.828000", "132557.828000", "132557.843000", "132557.843000", "132557.843000", "132557.843000", "132557.843000", "132557.843000", "132557.843000", "132557.843000", "132557.859000", "132557.859000", "132557.859000", "132557.859000", "132557.859000", "132557.859000", "132557.875000", "132557.875000", "132557.875000", "132557.875000", "132557.890000", "132557.890000", "132557.890000", "132557.890000", "132637.796000", "132637.796000", "132637.796000", "132637.812000", "132637.812000", "132637.812000", "132637.812000", "132637.812000", "132637.828000", "132637.828000", "132637.828000", "132637.843000", "132637.843000", "132637.843000", "132637.843000", "132637.843000", "132637.843000", "132637.843000", "132637.843000", "132637.859000", "132717.796000", "132717.796000", "132717.796000", "132717.812000", "132717.812000", "132717.812000", "132717.812000", "132717.812000", "132717.828000", "132717.828000", "132717.828000", "132717.828000", "132717.843000", "132717.843000", "132717.843000", "132717.843000", "132717.843000", "132717.843000", "132717.843000", "132717.843000", "132757.796000", "132757.796000", "132757.796000", "132757.812000", "132757.812000", "132757.812000", "132757.812000", "132757.812000", "132757.812000", "132757.812000", "132757.812000", "132757.828000", "132757.828000", "132757.828000", "132757.828000", "132757.828000", "132757.828000", "132757.828000", "132757.828000", "132757.843000", "132837.796000", "132837.796000", "132837.796000", "132837.812000", "132837.812000", "132837.812000", "132837.828000", "132837.828000", "132837.828000", "132837.828000", "132837.828000", "132837.828000", "132837.843000", "132837.843000", "132837.843000", "132837.843000", "132837.843000", "132837.843000", "132837.843000", "132837.843000", "132917.796000", "132917.796000", "132917.796000", "132917.812000", "132917.812000", "132917.812000", "132917.812000", "132917.812000", "132917.812000", "132917.812000", "132917.812000", "132917.828000", "132917.828000", "132917.828000", "132917.828000", "132917.828000", "132917.828000", "132917.828000", "132917.843000", "132917.843000", "132957.796000", "132957.812000", "132957.812000", "132957.812000", "132957.812000", "132957.812000", "132957.812000", "132957.812000", "132957.812000", "132957.828000", "132957.828000", "132957.828000", "132957.828000", "132957.828000", "132957.828000", "132957.828000", "132957.828000", "132957.843000", "132957.843000", "132957.843000", "133026.718000", "133026.734000", "133026.734000", "133026.734000", "133026.734000", "133026.734000", "133026.734000", "133026.750000", "133026.750000", "133026.750000", "133026.750000", "133026.750000", "133026.750000", "133026.750000", "133026.750000"],
      "InstanceNumber": [1, 2, 3, 4, 5, 6, 7, 8, 9, 10, 11, 12, 13, 14, 15, 16, 17, 18, 19, 20, 21, 22, 23, 24, 25, 26, 27, 28, 29, 30, 31, 32, 33, 34, 35, 36, 37, 38, 39, 40, 41, 42, 43, 44, 45, 46, 47, 48, 49, 50, 51, 52, 53, 54, 55, 56, 57, 58, 59, 60, 61, 62, 63, 64, 65, 66, 67, 68, 69, 70, 71, 72, 73, 74, 75, 76, 77, 78, 79, 80, 81, 82, 83, 84, 85, 86, 87, 88, 89, 90, 91, 92, 93, 94, 95, 96, 97, 98, 99, 100, 101, 102, 103, 104, 105, 106, 107, 108, 109, 110, 111, 112, 113, 114, 115, 116, 117, 118, 119, 120, 121, 122, 123, 124, 125, 126, 127, 128, 129, 130, 131, 132, 133, 134, 135, 136, 137, 138, 139, 140, 141, 142, 143, 144, 145, 146, 147, 148, 149, 150, 151, 152, 153, 154, 155, 156, 157, 158, 159, 160, 161, 162, 163, 164],
      "LargestImagePixelValue": [1755, 1798, 1720, 1709, 1720, 1726, 1923, 1758, 1766, 1738, 1750, 1714, 1715, 1717, 1723, 1726, 1722, 1740, 1732, 1719, 1718, 1730, 1713, 1728, 1724, 1738, 1711, 1745, 1722, 1725, 1724, 1728, 1730, 1726, 1721, 1768, 1775, 1713, 1722, 1732, 1835, 1745, 1741, 1774, 1881, 1733, 1730, 1735, 1746, 1726, 1716, 1736, 1723, 1734, 1726, 1759, 1833, 1745, 1746, 1746, 1717, 1862, 1772, 1738, 1771, 1738, 1741, 1740, 1741, 1737, 1742, 1733, 1746, 1717, 1733, 1731, 1729, 1977, 1726, 1751, 1728, 1726, 1752, 1728, 1899, 1740, 1715, 1729, 1762, 1727, 1717, 1759, 1728, 1778, 1946, 1732, 1726, 1736, 1742, 1742, 1707, 1747, 1750, 1735, 1737, 1929, 1770, 1789, 1838, 1735, 2024, 1757, 1741, 1737, 1741, 1848, 1735, 1750, 1761, 1773, 1752, 1789, 1730, 1846, 1717, 1735, 1740, 1738, 1772, 1749, 1725, 1750, 1751, 1735, 1741, 1733, 1756, 1738, 1754, 1752, 1776, 1763, 1747, 1736, 1752, 1745, 1752, 1802, 1736, 1743, 1718, 1734, 1729, 1739, 1770, 1742, 1729, 1772, 1768, 1827, 1765, 1757, 1778, 1745],
      "WindowCenter": [739.0, 736.0, 735.0, 736.0, 736.0, 736.0, 737.0, 736.0, 737.0, 736.0, 736.0, 734.0, 733.0, 733.0, 733.0, 734.0, 733.0, 733.0, 732.0, 733.0, 733.0, 733.0, 734.0, 733.0, 733.0, 734.0, 734.0, 734.0, 734.0, 735.0, 734.0, 734.0, 733.0, 733.0, 733.0, 734.0, 734.0, 734.0, 735.0, 735.0, 735.0, 735.0, 735.0, 736.0, 735.0, 734.0, 734.0, 734.0, 733.0, 734.0, 733.0, 733.0, 733.0, 734.0, 733.0, 733.0, 733.0, 733.0, 734.0, 734.0, 733.0, 734.0, 733.0, 733.0, 733.0, 732.0, 733.0, 734.0, 735.0, 736.0, 736.0, 735.0, 734.0, 734.0, 733.0, 733.0, 732.0, 734.0, 733.0, 734.0, 734.0, 734.0, 734.0, 733.0, 734.0, 733.0, 734.0, 734.0, 734.0, 734.0, 735.0, 736.0, 735.0, 733.0, 733.0, 731.0, 730.0, 731.0, 732.0, 733.0, 732.0, 733.0, 734.0, 735.0, 735.0, 735.0, 734.0, 736.0, 736.0, 735.0, 736.0, 734.0, 734.0, 734.0, 734.0, 734.0, 734.0, 735.0, 735.0, 735.0, 734.0, 735.0, 734.0, 735.0, 734.0, 734.0, 733.0, 734.0, 735.0, 735.0, 735.0, 736.0, 736.0, 735.0, 734.0, 734.0, 736.0, 735.0, 734.0, 736.0, 737.0, 735.0, 734.0, 735.0, 737.0, 737.0, 736.0, 736.0, 734.0, 734.0, 734.0, 735.0, 735.0, 735.0, 735.0, 735.0, 736.0, 737.0, 736.0, 736.0, 736.0, 736.0, 736.0, 735.0],
      "WindowWidth": [1588.0, 1582.0, 1580.0, 1580.0, 1582.0, 1580.0, 1583.0, 1580.0, 1584.0, 1580.0, 1579.0, 1574.0, 1574.0, 1572.0, 1573.0, 1575.0, 1572.0, 1571.0, 1571.0, 1572.0, 1572.0, 1573.0, 1574.0, 1573.0, 1572.0, 1574.0, 1574.0, 1574.0, 1576.0, 1577.0, 1576.0, 1575.0, 1573.0, 1573.0, 1573.0, 1576.0, 1575.0, 1575.0, 1578.0, 1579.0, 1579.0, 1576.0, 1578.0, 1579.0, 1578.0, 1575.0, 1575.0, 1574.0, 1572.0, 1575.0, 1573.0, 1573.0, 1573.0, 1575.0, 1573.0, 1574.0, 1573.0, 1573.0, 1574.0, 1575.0, 1573.0, 1574.0, 1574.0, 1574.0, 1572.0, 1571.0, 1572.0, 1575.0, 1578.0, 1579.0, 1580.0, 1577.0, 1575.0, 1575.0, 1573.0, 1573.0, 1571.0, 1574.0, 1571.0, 1574.0, 1575.0, 1574.0, 1574.0, 1572.0, 1576.0, 1573.0, 1575.0, 1574.0, 1577.0, 1576.0, 1578.0, 1580.0, 1577.0, 1573.0, 1572.0, 1566.0, 1565.0, 1568.0, 1570.0, 1571.0, 1571.0, 1572.0, 1576.0, 1579.0, 1577.0, 1578.0, 1576.0, 1579.0, 1581.0, 1579.0, 1582.0, 1576.0, 1575.0, 1574.0, 1575.0, 1575.0, 1574.0, 1578.0, 1579.0, 1578.0, 1576.0, 1578.0, 1576.0, 1579.0, 1575.0, 1574.0, 1573.0, 1574.0, 1577.0, 1577.0, 1577.0, 1581.0, 1579.0, 1577.0, 1576.0, 1575.0, 1581.0, 1577.0, 1576.0, 1579.0, 1582.0, 1579.0, 1576.0, 1579.0, 1582.0, 1583.0, 1582.0, 1579.0, 1575.0, 1576.0, 1576.0, 1577.0, 1578.0, 1577.0, 1577.0, 1578.0, 1581.0, 1582.0, 1581.0, 1581.0, 1580.0, 1581.0, 1581.0, 1577.0]
    },
    "slices": {}
  }
}