{
  "AcquisitionMatrixPE": 64,
  "AcquisitionNumber": 1,
  "AcquisitionTime": "13:44:55.742500",
  "BandwidthPerPixelPhaseEncode": 33.967,
  "BaseResolution": 64,
  "CoilCombinationMethod": "Sum of Squares",
  "CoilString": "C:HEA;HEP",
  "ConversionSoftware": "dcm2niix",
  "ConversionSoftwareVersion": "v1.0.20220720",
  "DerivedVendorReportedEchoSpacing": 0.000460005,
  "DeviceSerialNumber": "35193",
  "DwellTime": 3.1e-06,
  "EchoTime": 0.03,
  "EffectiveEchoSpacing": 0.000460005,
  "FlipAngle": 90,
  "HeudiconvVersion": "1.1.6",
  "ImageOrientationPatientDICOM": [0.999781, -1e-16, -0.0209424, 1e-16, 1, 0],
  "ImageOrientationText": "Tra>Sag(-1.2)",
  "ImageType": [
    "ORIGINAL",
    "PRIMARY",
    "M",
    "ND",
    "MOSAIC"
],
  "ImagingFrequency": 123.254,
  "InPlanePhaseEncodingDirectionDICOM": "COL",
  "InstitutionAddress": "Xinjiekouwai Street No 19,Beijing,Haidian District,CN,100875",
  "InstitutionName": "BNU MRI Center",
  "InstitutionalDepartmentName": "Department",
  "MRAcquisitionType": "2D",
  "MagneticFieldStrength": 3,
  "Manufacturer": "Siemens",
  "ManufacturersModelName": "TrioTim",
  "MatrixCoilMode": "SENSE",
  "Modality": "MR",
  "NonlinearGradientCorrection": false,
  "PartialFourier": 1,
  "PatientPosition": "HFS",
  "PercentPhaseFOV": 100,
  "PercentSampling": 100,
  "PhaseEncodingDirection": "j-",
  "PhaseEncodingSteps": 64,
  "PhaseResolution": 1,
  "PixelBandwidth": 2520,
  "ProcedureStepDescription": "BNU_cst_2015^Guo.TaoMei",
  "ProtocolName": "ge_func_3x3x4_164",
  "PulseSequenceDetails": "%SiemensSeq%\\ep2d_bold",
  "ReceiveCoilName": "HeadMatrix",
  "ReconMatrixPE": 64,
  "RepetitionTime": 2,
  "SAR": 0.176598,
  "ScanOptions": "FS",
  "ScanningSequence": "EP",
  "SequenceName": "*epfid2d1_64",
  "SequenceVariant": "SK",
  "SeriesDescription": "ge_func_3x3x4_164",
  "SeriesNumber": 2,
  "ShimSetting": [-4489, -19468, -9766, 1229, 2, -535, -4, -66],
  "SliceThickness": 4,
  "SliceTiming": [0, 1.0325, 0.06, 1.095, 0.12, 1.155, 0.1825, 1.215, 0.2425, 1.2775, 0.3025, 1.3375, 0.365, 1.3975, 0.425, 1.46, 0.485, 1.52, 0.5475, 1.58, 0.6075, 1.6425, 0.6675, 1.7025, 0.73, 1.7625, 0.79, 1.825, 0.85, 1.885, 0.9125, 1.945, 0.9725],
  "SoftwareVersions": "syngo MR B17",
  "SpacingBetweenSlices": 4.6,
  "StationName": "MRC35193",
  "TaskName": "CognitiveControl",
  "TotalReadoutTime": 0.0289803,
  "TxRefAmp": 367.327,
  "dcmmeta_affine": [
    [-3.124314546585083, 3.124999945161469e-16, -0.09633512794971466, 108.94111633300781],
    [3.124999945161469e-16, 3.125, 9.633512504276296e-18, -87.42921447753906],
    [-0.06544505804777145, 0.0, 4.5989909172058105, -55.97154235839844],
    [0.0, 0.0, 0.0, 1.0]
],
  "dcmmeta_reorient_transform": [
    [0.0, -1.0, 0.0, 63.0],
    [1.0, 0.0, 0.0, 0.0],
    [0.0, 0.0, 1.0, 0.0],
    [0.0, 0.0, 0.0, 1.0]
],
  "dcmmeta_shape": [64, 64, 33, 164],
  "dcmmeta_slice_dim": 2,
  "dcmmeta_version": 0.6,
  "global": {
    "const": {
      "AcquisitionMatrix": [64, 0, 0, 64],
      "AngioFlag": "N",
      "BitsAllocated": 16,
      "BitsStored": 12,
      "Columns": 384,
      "EchoNumbers": 1,
      "EchoTime": 30.0,
      "EchoTrainLength": 1,
      "FlipAngle": 90.0,
      "HighBit": 11,
      "ImageOrientationPatient": [0.9997806834792, -1e-16, -0.0209424196753, 1e-16, 1.0, 0.0],
      "ImagePositionPatient": [-608.83145902246, -609.44578266144, -45.50033264916],
      "ImageType": [
        "ORIGINAL",
        "PRIMARY",
        "M",
        "ND",
        "MOSAIC"
],
      "ImagedNucleus": "1H",
      "ImagingFrequency": 123.253622,
      "InPlanePhaseEncodingDirection": "COL",
      "MRAcquisitionType": "2D",
      "MagneticFieldStrength": 3.0,
      "Manufacturer": "SIEMENS",
      "ManufacturerModelName": "TrioTim",
      "Modality": "MR",
      "NumberOfAverages": 1.0,
      "NumberOfPhaseEncodingSteps": 64,
      "PercentPhaseFieldOfView": 100.0,
      "PercentSampling": 100.0,
      "PerformedProcedureStepStartTime": "134209.984000",
      "PhotometricInterpretation": "MONOCHROME2",
      "PixelBandwidth": 2520.0,
      "PixelRepresentation": 0,
      "PixelSpacing": [3.125, 3.125],
      "ProtocolName": "ge_func_3x3x4_164",
      "RepetitionTime": 2000.0,
      "Rows": 384,
      "SAR": 0.17659750463772,
      "SamplesPerPixel": 1,
      "ScanOptions": "FS",
      "ScanningSequence": "EP",
      "SequenceName": "*epfid2d1_64",
      "SequenceVariant": "SK",
      "SeriesDescription": "ge_func_3x3x4_164",
      "SeriesNumber": 2,
      "SeriesTime": "134550.718000",
      "SliceLocation": -58.240757600888,
      "SliceThickness": 4.0,
      "SmallestImagePixelValue": 0,
      "SoftwareVersions": "syngo MR B17",
      "SpacingBetweenSlices": 4.5999998923808,
      "SpecificCharacterSet": "ISO_IR 100",
      "StudyID": "1",
      "StudyTime": "134209.921000",
      "TransmitCoilName": "Body",
      "VariableFlipAngleFlag": "N",
      "WindowCenterWidthExplanation": "Algo1",
      "dBdt": 0.0},
    "slices": {}
  },
  "time": {
    "samples": {
      "AcquisitionNumber": [1, 2, 3, 4, 5, 6, 7, 8, 9, 10, 11, 12, 13, 14, 15, 16, 17, 18, 19, 20, 21, 22, 23, 24, 25, 26, 27, 28, 29, 30, 31, 32, 33, 34, 35, 36, 37, 38, 39, 40, 41, 42, 43, 44, 45, 46, 47, 48, 49, 50, 51, 52, 53, 54, 55, 56, 57, 58, 59, 60, 61, 62, 63, 64, 65, 66, 67, 68, 69, 70, 71, 72, 73, 74, 75, 76, 77, 78, 79, 80, 81, 82, 83, 84, 85, 86, 87, 88, 89, 90, 91, 92, 93, 94, 95, 96, 97, 98, 99, 100, 101, 102, 103, 104, 105, 106, 107, 108, 109, 110, 111, 112, 113, 114, 115, 116, 117, 118, 119, 120, 121, 122, 123, 124, 125, 126, 127, 128, 129, 130, 131, 132, 133, 134, 135, 136, 137, 138, 139, 140, 141, 142, 143, 144, 145, 146, 147, 148, 149, 150, 151, 152, 153, 154, 155, 156, 157, 158, 159, 160, 161, 162, 163, 164],
      "AcquisitionTime": ["134455.742500", "134457.750000", "134459.757500", "134501.765000", "134503.775000", "134505.782500", "134507.790000", "134509.797500", "134511.805000", "134513.815000", "134515.822500", "134517.830000", "134519.837500", "134521.845000", "134523.855000", "134525.862500", "134527.870000", "134529.877500", "134531.887500", "134533.895000", "134535.902500", "134537.910000", "134539.917500", "134541.927500", "134543.935000", "134545.942500", "134547.950000", "134549.957500", "134551.967500", "134553.975000", "134555.982500", "134557.990000", "134600.000000", "134602.007500", "134604.015000", "134606.022500", "134608.030000", "134610.040000", "134612.047500", "134614.055000", "134616.062500", "134618.070000", "134620.080000", "134622.087500", "134624.095000", "134626.102500", "134628.110000", "134630.120000", "134632.127500", "134634.135000", "134636.142500", "134638.152500", "134640.160000", "134642.167500", "134644.175000", "134646.182500", "134648.192500", "134650.200000", "134652.207500", "134654.215000", "134656.222500", "134658.232500", "134700.240000", "134702.247500", "134704.255000", "134706.265000", "134708.272500", "134710.280000", "134712.287500", "134714.295000", "134716.305000", "134718.312500", "134720.320000", "134722.327500", "134724.335000", "134726.345000", "134728.352500", "134730.360000", "134732.367500", "134734.377500", "134736.385000", "134738.392500", "134740.400000", "134742.407500", "134744.417500", "134746.425000", "134748.432500", "134750.440000", "134752.447500", "134754.457500", "134756.465000", "134758.472500", "134800.480000", "134802.487500", "134804.497500", "134806.505000", "134808.512500", "134810.520000", "134812.530000", "134814.537500", "134816.545000", "134818.552500", "134820.560000", "134822.570000", "134824.577500", "134826.585000", "134828.592500", "134830.600000", "134832.610000", "134834.617500", "134836.625000", "134838.632500", "134840.642500", "134842.650000", "134844.657500", "134846.665000", "134848.672500", "134850.682500", "134852.690000", "134854.697500", "134856.705000", "134858.712500", "134900.722500", "134902.730000", "134904.737500", "134906.745000", "134908.755000", "134910.762500", "134912.770000", "134914.777500", "134916.785000", "134918.795000", "134920.802500", "134922.810000", "134924.817500", "134926.825000", "134928.835000", "134930.842500", "134932.850000", "134934.857500", "134936.865000", "134938.875000", "134940.882500", "134942.890000", "134944.897500", "134946.907500", "134948.915000", "134950.922500", "134952.930000", "134954.937500", "134956.947500", "134958.955000", "135000.962500", "135002.970000", "135004.977500", "135006.987500", "135008.995000", "135011.002500", "135013.010000", "135015.020000", "135017.027500", "135019.035000", "135021.042500", "135023.050000"],
      "ContentTime": ["134550.718000", "134550.718000", "134550.718000", "134550.718000", "134550.718000", "134550.734000", "134550.734000", "134550.734000", "134550.734000", "134550.734000", "134550.734000", "134550.734000", "134550.750000", "134550.750000", "134550.750000", "134550.750000", "134550.750000", "134550.750000", "134550.765000", "134550.765000", "134550.765000", "134550.765000", "134550.765000", "134550.781000", "134550.781000", "134550.781000", "134550.781000", "134630.703000", "134630.718000", "134630.718000", "134630.718000", "134630.718000", "134630.718000", "134630.718000", "134630.718000", "134630.718000", "134630.734000", "134630.734000", "134630.734000", "134630.734000", "134630.750000", "134630.750000", "134630.750000", "134630.750000", "134630.750000", "134630.750000", "134630.765000", "134710.703000", "134710.718000", "134710.718000", "134710.718000", "134710.718000", "134710.718000", "134710.734000", "134710.734000", "134710.734000", "134710.750000", "134710.750000", "134710.750000", "134710.750000", "134710.750000", "134710.750000", "134710.750000", "134710.765000", "134710.765000", "134710.765000", "134710.765000", "134750.703000", "134750.718000", "134750.718000", "134750.718000", "134750.718000", "134750.718000", "134750.734000", "134750.734000", "134750.734000", "134750.734000", "134750.734000", "134750.734000", "134750.734000", "134750.750000", "134750.750000", "134750.750000", "134750.750000", "134750.750000", "134750.750000", "134750.750000", "134830.703000", "134830.718000", "134830.718000", "134830.718000", "134830.718000", "134830.734000", "134830.734000", "134830.734000", "134830.734000", "134830.734000", "134830.734000", "134830.750000", "134830.750000", "134830.750000", "134830.750000", "134830.750000", "134830.750000", "134830.750000", "134830.750000", "134830.765000", "134910.703000", "134910.718000", "134910.718000", "134910.718000", "134910.718000", "134910.718000", "134910.718000", "134910.718000", "134910.734000", "134910.734000", "134910.734000", "134910.734000", "134910.734000", "134910.734000", "134910.750000", "134910.750000", "134910.750000", "134910.750000", "134910.750000", "134910.750000", "134950.703000", "134950.718000", "134950.718000", "134950.718000", "134950.734000", "134950.734000", "134950.734000", "134950.734000", "134950.734000", "134950.734000", "134950.734000", "134950.750000", "134950.750000", "134950.750000", "134950.750000", "134950.750000", "134950.750000", "134950.750000", "134950.765000", "134950.765000", "135024.328000", "135024.328000", "135024.328000", "135024.328000", "135024.328000", "135024.328000", "135024.343000", "135024.343000", "135024.343000", "135024.343000", "135024.343000", "135024.343000", "135024.359000", "135024.359000", "135024.359000", "135024.359000", "135024.359000"],
      "InstanceCreationTime": ["134550.718000", "134550.718000", "134550.718000", "134550.718000", "134550.718000", "134550.734000", "134550.734000", "134550.734000", "134550.734000", "134550.734000", "134550.734000", "134550.734000", "134550.750000", "134550.750000", "134550.750000", "134550.750000", "134550.750000", "134550.750000", "134550.765000", "134550.765000", "134550.765000", "134550.765000", "134550.765000", "134550.781000", "134550.781000", "134550.781000", "134550.781000", "134630.703000", "134630.718000", "134630.718000", "134630.718000", "134630.718000", "134630.718000", "134630.718000", "134630.718000", "134630.718000", "134630.734000", "134630.734000", "134630.734000", "134630.734000", "134630.750000", "134630.750000", "134630.750000", "134630.750000", "134630.750000", "134630.750000", "134630.765000", "134710.703000", "134710.718000", "134710.718000", "134710.718000", "134710.718000", "134710.718000", "134710.734000", "134710.734000", "134710.734000", "134710.750000", "134710.750000", "134710.750000", "134710.750000", "134710.750000", "134710.750000", "134710.750000", "134710.765000", "134710.765000", "134710.765000", "134710.765000", "134750.703000", "134750.718000", "134750.718000", "134750.718000", "134750.718000", "134750.718000", "134750.734000", "134750.734000", "134750.734000", "134750.734000", "134750.734000", "134750.734000", "134750.734000", "134750.750000", "134750.750000", "134750.750000", "134750.750000", "134750.750000", "134750.750000", "134750.750000", "134830.703000", "134830.718000", "134830.718000", "134830.718000", "134830.718000", "134830.734000", "134830.734000", "134830.734000", "134830.734000", "134830.734000", "134830.734000", "134830.750000", "134830.750000", "134830.750000", "134830.750000", "134830.750000", "134830.750000", "134830.750000", "134830.750000", "134830.765000", "134910.703000", "134910.718000", "134910.718000", "134910.718000", "134910.718000", "134910.718000", "134910.718000", "134910.718000", "134910.734000", "134910.734000", "134910.734000", "134910.734000", "134910.734000", "134910.734000", "134910.750000", "134910.750000", "134910.750000", "134910.750000", "134910.750000", "134910.750000", "134950.703000", "134950.718000", "134950.718000", "134950.718000", "134950.734000", "134950.734000", "134950.734000", "134950.734000", "134950.734000", "134950.734000", "134950.734000", "134950.750000", "134950.750000", "134950.750000", "134950.750000", "134950.750000", "134950.750000", "134950.750000", "134950.765000", "134950.765000", "135024.328000", "135024.328000", "135024.328000", "135024.328000", "135024.328000", "135024.328000", "135024.343000", "135024.343000", "135024.343000", "135024.343000", "135024.343000", "135024.343000", "135024.359000", "135024.359000", "135024.359000", "135024.359000", "135024.359000"],
      "InstanceNumber": [1, 2, 3, 4, 5, 6, 7, 8, 9, 10, 11, 12, 13, 14, 15, 16, 17, 18, 19, 20, 21, 22, 23, 24, 25, 26, 27, 28, 29, 30, 31, 32, 33, 34, 35, 36, 37, 38, 39, 40, 41, 42, 43, 44, 45, 46, 47, 48, 49, 50, 51, 52, 53, 54, 55, 56, 57, 58, 59, 60, 61, 62, 63, 64, 65, 66, 67, 68, 69, 70, 71, 72, 73, 74, 75, 76, 77, 78, 79, 80, 81, 82, 83, 84, 85, 86, 87, 88, 89, 90, 91, 92, 93, 94, 95, 96, 97, 98, 99, 100, 101, 102, 103, 104, 105, 106, 107, 108, 109, 110, 111, 112, 113, 114, 115, 116, 117, 118, 119, 120, 121, 122, 123, 124, 125, 126, 127, 128, 129, 130, 131, 132, 133, 134, 135, 136, 137, 138, 139, 140, 141, 142, 143, 144, 145, 146, 147, 148, 149, 150, 151, 152, 153, 154, 155, 156, 157, 158, 159, 160, 161, 162, 163, 164],
      "LargestImagePixelValue": [1834, 1783, 1778, 1744, 1756, 1732, 1739, 1910, 1699, 1715, 1726, 1811, 1724, 1692, 1780, 1765, 1761, 1858, 1772, 1786, 1744, 1771, 1770, 1755, 1778, 1836, 1775, 1933, 1752, 1783, 1741, 1741, 1756, 1763, 1758, 1745, 1743, 1760, 1754, 1846, 1756, 1755, 1741, 1731, 1733, 1755, 1729, 1737, 1736, 1730, 1795, 1736, 1750, 1756, 1747, 1781, 1759, 1752, 1754, 1752, 1779, 1759, 1754, 1769, 1888, 1745, 1747, 1779, 1776, 1787, 1759, 1773, 1817, 1779, 1750, 1776, 1766, 1756, 1767, 1792, 1792, 1781, 1773, 1793, 1766, 1771, 1763, 1782, 1769, 1772, 1767, 1777, 1758, 1758, 1751, 1806, 1785, 1753, 1784, 1779, 1768, 1772, 1771, 1781, 1770, 1764, 1788, 1786, 1771, 1762, 1777, 1773, 1760, 1786, 1779, 1801, 1765, 1777, 1782, 1788, 1782, 1790, 1789, 1788, 1793, 1810, 1797, 1795, 1784, 1772, 1780, 1782, 1775, 1768, 1787, 1778, 1808, 1780, 1768, 1789, 1788, 1772, 1775, 1797, 1766, 1763, 1779, 1783, 1768, 1779, 1772, 1771, 1796, 1779, 1773, 1774, 1783, 1765, 1773, 1775, 1786, 1777, 1778, 1781],
      "WindowCenter": [740.0, 737.0, 739.0, 739.0, 738.0, 737.0, 737.0, 738.0, 735.0, 735.0, 736.0, 736.0, 736.0, 736.0, 739.0, 737.0, 736.0, 736.0, 737.0, 738.0, 737.0, 738.0, 738.0, 738.0, 738.0, 738.0, 737.0, 739.0, 737.0, 737.0, 737.0, 737.0, 737.0, 737.0, 735.0, 736.0, 737.0, 737.0, 736.0, 737.0, 736.0, 736.0, 736.0, 736.0, 736.0, 736.0, 736.0, 737.0, 737.0, 736.0, 737.0, 736.0, 736.0, 736.0, 736.0, 737.0, 737.0, 736.0, 736.0, 736.0, 737.0, 737.0, 736.0, 736.0, 736.0, 735.0, 737.0, 737.0, 736.0, 736.0, 736.0, 736.0, 737.0, 736.0, 736.0, 737.0, 737.0, 737.0, 736.0, 736.0, 737.0, 736.0, 737.0, 737.0, 736.0, 736.0, 736.0, 736.0, 736.0, 736.0, 736.0, 736.0, 737.0, 737.0, 736.0, 736.0, 736.0, 736.0, 736.0, 736.0, 735.0, 736.0, 737.0, 738.0, 737.0, 736.0, 737.0, 737.0, 737.0, 737.0, 737.0, 736.0, 736.0, 737.0, 737.0, 737.0, 737.0, 737.0, 737.0, 736.0, 737.0, 738.0, 738.0, 738.0, 737.0, 738.0, 737.0, 738.0, 737.0, 738.0, 737.0, 737.0, 737.0, 737.0, 738.0, 737.0, 737.0, 737.0, 737.0, 737.0, 737.0, 737.0, 737.0, 738.0, 738.0, 739.0, 738.0, 737.0, 737.0, 739.0, 739.0, 739.0, 739.0, 739.0, 740.0, 739.0, 738.0, 738.0, 738.0, 738.0, 738.0, 737.0, 737.0, 738.0],
      "WindowWidth": [1595.0, 1587.0, 1590.0, 1591.0, 1589.0, 1586.0, 1587.0, 1587.0, 1582.0, 1582.0, 1583.0, 1584.0, 1582.0, 1582.0, 1589.0, 1584.0, 1583.0, 1582.0, 1586.0, 1587.0, 1585.0, 1588.0, 1589.0, 1588.0, 1587.0, 1589.0, 1586.0, 1590.0, 1586.0, 1585.0, 1586.0, 1586.0, 1586.0, 1584.0, 1581.0, 1584.0, 1586.0, 1586.0, 1582.0, 1586.0, 1584.0, 1584.0, 1582.0, 1583.0, 1583.0, 1582.0, 1584.0, 1586.0, 1585.0, 1584.0, 1585.0, 1583.0, 1583.0, 1584.0, 1584.0, 1585.0, 1585.0, 1584.0, 1582.0, 1582.0, 1585.0, 1585.0, 1583.0, 1583.0, 1584.0, 1580.0, 1585.0, 1586.0, 1582.0, 1583.0, 1583.0, 1583.0, 1585.0, 1583.0, 1583.0, 1585.0, 1585.0, 1585.0, 1583.0, 1583.0, 1585.0, 1584.0, 1585.0, 1585.0, 1584.0, 1584.0, 1583.0, 1584.0, 1584.0, 1584.0, 1582.0, 1584.0, 1585.0, 1585.0, 1583.0, 1583.0, 1583.0, 1585.0, 1583.0, 1582.0, 1582.0, 1584.0, 1586.0, 1588.0, 1585.0, 1584.0, 1585.0, 1587.0, 1587.0, 1586.0, 1586.0, 1584.0, 1583.0, 1585.0, 1585.0, 1586.0, 1585.0, 1586.0, 1585.0, 1584.0, 1586.0, 1587.0, 1590.0, 1588.0, 1587.0, 1588.0, 1586.0, 1587.0, 1587.0, 1587.0, 1587.0, 1586.0, 1586.0, 1586.0, 1588.0, 1587.0, 1585.0, 1585.0, 1586.0, 1585.0, 1585.0, 1586.0, 1587.0, 1590.0, 1589.0, 1591.0, 1589.0, 1586.0, 1587.0, 1590.0, 1591.0, 1590.0, 1590.0, 1591.0, 1593.0, 1590.0, 1589.0, 1588.0, 1588.0, 1588.0, 1589.0, 1587.0, 1586.0, 1588.0]
    },
    "slices": {}
  }
}