{
  "AcquisitionMatrixPE": 64,
  "AcquisitionNumber": 1,
  "AcquisitionTime": "13:04:58.762500",
  "BandwidthPerPixelPhaseEncode": 33.967,
  "BaseResolution": 64,
  "CoilCombinationMethod": "Sum of Squares",
  "CoilString": "C:HEA;HEP",
  "ConversionSoftware": "dcm2niix",
  "ConversionSoftwareVersion": "v1.0.20220720",
  "DerivedVendorReportedEchoSpacing": 0.000460005,
  "DeviceSerialNumber": "35193",
  "DwellTime": 3.1e-06,
  "EchoTime": 0.03,
  "EffectiveEchoSpacing": 0.000460005,
  "FlipAngle": 90,
  "HeudiconvVersion": "1.1.6",
  "ImageOrientationPatientDICOM": [1, 0, 0, 0, 1, 0],
  "ImageOrientationText": "Tra",
  "ImageType": [
    "ORIGINAL",
    "PRIMARY",
    "M",
    "ND",
    "MOSAIC"
],
  "ImagingFrequency": 123.254,
  "InPlanePhaseEncodingDirectionDICOM": "COL",
  "InstitutionAddress": "Xinjiekouwai Street No 19,Beijing,Haidian District,CN,100875",
  "InstitutionName": "BNU MRI Center",
  "InstitutionalDepartmentName": "Department",
  "MRAcquisitionType": "2D",
  "MagneticFieldStrength": 3,
  "Manufacturer": "Siemens",
  "ManufacturersModelName": "TrioTim",
  "MatrixCoilMode": "SENSE",
  "Modality": "MR",
  "NonlinearGradientCorrection": false,
  "PartialFourier": 1,
  "PatientPosition": "HFS",
  "PercentPhaseFOV": 100,
  "PercentSampling": 100,
  "PhaseEncodingDirection": "j-",
  "PhaseEncodingSteps": 64,
  "PhaseResolution": 1,
  "PixelBandwidth": 2520,
  "ProcedureStepDescription": "BNU_cst_2015^Guo.TaoMei",
  "ProtocolName": "ge_func_3x3x4_164",
  "PulseSequenceDetails": "%SiemensSeq%\\ep2d_bold",
  "ReceiveCoilName": "HeadMatrix",
  "ReconMatrixPE": 64,
  "RepetitionTime": 2,
  "SAR": 0.134377,
  "ScanOptions": "FS",
  "ScanningSequence": "EP",
  "SequenceName": "*epfid2d1_64",
  "SequenceVariant": "SK",
  "SeriesDescription": "ge_func_3x3x4_164",
  "SeriesNumber": 4,
  "ShimSetting": [-4500, -19444, -9857, 1012, -94, -541, -98, -95],
  "SliceThickness": 4,
  "SliceTiming": [0, 1.0325, 0.06, 1.095, 0.12, 1.155, 0.1825, 1.215, 0.2425, 1.2775, 0.3025, 1.3375, 0.365, 1.3975, 0.425, 1.46, 0.485, 1.52, 0.5475, 1.58, 0.6075, 1.6425, 0.6675, 1.7025, 0.73, 1.7625, 0.79, 1.825, 0.85, 1.885, 0.9125, 1.945, 0.9725],
  "SoftwareVersions": "syngo MR B17",
  "SpacingBetweenSlices": 4.6,
  "StationName": "MRC35193",
  "TaskName": "LanguageControl",
  "TotalReadoutTime": 0.0289803,
  "TxRefAmp": 319.945,
  "dcmmeta_affine": [
    [-3.125, 0.0, 0.0, 106.74698638916016],
    [0.0, 3.125, 0.0, -89.45331573486328],
    [0.0, 0.0, 4.599999904632568, -66.17831420898438],
    [0.0, 0.0, 0.0, 1.0]
],
  "dcmmeta_reorient_transform": [
    [0.0, -1.0, 0.0, 63.0],
    [1.0, 0.0, 0.0, 0.0],
    [0.0, 0.0, 1.0, 0.0],
    [0.0, 0.0, 0.0, 1.0]
],
  "dcmmeta_shape": [64, 64, 33, 164],
  "dcmmeta_slice_dim": 2,
  "dcmmeta_version": 0.6,
  "global": {
    "const": {
      "AcquisitionMatrix": [64, 0, 0, 64],
      "AngioFlag": "N",
      "BitsAllocated": 16,
      "BitsStored": 12,
      "Columns": 384,
      "EchoNumbers": 1,
      "EchoTime": 30.0,
      "EchoTrainLength": 1,
      "FlipAngle": 90.0,
      "HighBit": 11,
      "ImageOrientationPatient": [1.0, 0.0, 0.0, 0.0, 1.0, 0.0],
      "ImagePositionPatient": [-606.74698781967, -607.42168664932, -66.178314208984],
      "ImageType": [
        "ORIGINAL",
        "PRIMARY",
        "M",
        "ND",
        "MOSAIC"
],
      "ImagedNucleus": "1H",
      "ImagingFrequency": 123.253711,
      "InPlanePhaseEncodingDirection": "COL",
      "MRAcquisitionType": "2D",
      "MagneticFieldStrength": 3.0,
      "Manufacturer": "SIEMENS",
      "ManufacturerModelName": "TrioTim",
      "Modality": "MR",
      "NumberOfAverages": 1.0,
      "NumberOfPhaseEncodingSteps": 64,
      "PercentPhaseFieldOfView": 100.0,
      "PercentSampling": 100.0,
      "PerformedProcedureStepStartTime": "124939.562000",
      "PhotometricInterpretation": "MONOCHROME2",
      "PixelBandwidth": 2520.0,
      "PixelRepresentation": 0,
      "PixelSpacing": [3.125, 3.125],
      "ProtocolName": "ge_func_3x3x4_164",
      "RepetitionTime": 2000.0,
      "Rows": 384,
      "SAR": 0.13437728401794,
      "SamplesPerPixel": 1,
      "ScanOptions": "FS",
      "ScanningSequence": "EP",
      "SequenceName": "*epfid2d1_64",
      "SequenceVariant": "SK",
      "SeriesDescription": "ge_func_3x3x4_164",
      "SeriesNumber": 4,
      "SeriesTime": "130541.093000",
      "SliceLocation": -66.178314208984,
      "SliceThickness": 4.0,
      "SmallestImagePixelValue": 0,
      "SoftwareVersions": "syngo MR B17",
      "SpacingBetweenSlices": 4.6000001430511,
      "SpecificCharacterSet": "ISO_IR 100",
      "StudyID": "1",
      "StudyTime": "124939.484000",
      "TransmitCoilName": "Body",
      "VariableFlipAngleFlag": "N",
      "WindowCenterWidthExplanation": "Algo1",
      "dBdt": 0.0},
    "slices": {}
  },
  "time": {
    "samples": {
      "AcquisitionNumber": [1, 2, 3, 4, 5, 6, 7, 8, 9, 10, 11, 12, 13, 14, 15, 16, 17, 18, 19, 20, 21, 22, 23, 24, 25, 26, 27, 28, 29, 30, 31, 32, 33, 34, 35, 36, 37, 38, 39, 40, 41, 42, 43, 44, 45, 46, 47, 48, 49, 50, 51, 52, 53, 54, 55, 56, 57, 58, 59, 60, 61, 62, 63, 64, 65, 66, 67, 68, 69, 70, 71, 72, 73, 74, 75, 76, 77, 78, 79, 80, 81, 82, 83, 84, 85, 86, 87, 88, 89, 90, 91, 92, 93, 94, 95, 96, 97, 98, 99, 100, 101, 102, 103, 104, 105, 106, 107, 108, 109, 110, 111, 112, 113, 114, 115, 116, 117, 118, 119, 120, 121, 122, 123, 124, 125, 126, 127, 128, 129, 130, 131, 132, 133, 134, 135, 136, 137, 138, 139, 140, 141, 142, 143, 144, 145, 146, 147, 148, 149, 150, 151, 152, 153, 154, 155, 156, 157, 158, 159, 160, 161, 162, 163, 164],
      "AcquisitionTime": ["130458.762500", "130500.770000", "130502.777500", "130504.785000", "130506.792500", "130508.802500", "130510.810000", "130512.817500", "130514.825000", "130516.832500", "130518.842500", "130520.850000", "130522.857500", "130524.865000", "130526.875000", "130528.882500", "130530.890000", "130532.897500", "130534.905000", "130536.915000", "130538.922500", "130540.930000", "130542.937500", "130544.945000", "130546.955000", "130548.962500", "130550.970000", "130552.977500", "130554.985000", "130556.995000", "130559.002500", "130601.010000", "130603.017500", "130605.027500", "130607.035000", "130609.042500", "130611.050000", "130613.057500", "130615.067500", "130617.075000", "130619.082500", "130621.090000", "130623.097500", "130625.107500", "130627.115000", "130629.122500", "130631.130000", "130633.140000", "130635.147500", "130637.155000", "130639.162500", "130641.170000", "130643.180000", "130645.187500", "130647.195000", "130649.202500", "130651.210000", "130653.220000", "130655.227500", "130657.235000", "130659.242500", "130701.252500", "130703.260000", "130705.267500", "130707.275000", "130709.282500", "130711.292500", "130713.300000", "130715.307500", "130717.315000", "130719.322500", "130721.332500", "130723.340000", "130725.347500", "130727.355000", "130729.362500", "130731.372500", "130733.380000", "130735.387500", "130737.395000", "130739.405000", "130741.412500", "130743.420000", "130745.427500", "130747.435000", "130749.445000", "130751.452500", "130753.460000", "130755.467500", "130757.475000", "130759.485000", "130801.492500", "130803.500000", "130805.507500", "130807.517500", "130809.525000", "130811.532500", "130813.540000", "130815.547500", "130817.557500", "130819.565000", "130821.572500", "130823.580000", "130825.587500", "130827.597500", "130829.605000", "130831.612500", "130833.620000", "130835.630000", "130837.637500", "130839.645000", "130841.652500", "130843.660000", "130845.670000", "130847.677500", "130849.685000", "130851.692500", "130853.700000", "130855.710000", "130857.717500", "130859.725000", "130901.732500", "130903.740000", "130905.750000", "130907.757500", "130909.765000", "130911.772500", "130913.782500", "130915.790000", "130917.797500", "130919.805000", "130921.812500", "130923.822500", "130925.830000", "130927.837500", "130929.845000", "130931.852500", "130933.862500", "130935.870000", "130937.877500", "130939.885000", "130941.895000", "130943.902500", "130945.910000", "130947.917500", "130949.925000", "130951.935000", "130953.942500", "130955.950000", "130957.957500", "130959.965000", "131001.975000", "131003.982500", "131005.990000", "131007.997500", "131010.007500", "131012.015000", "131014.022500", "131016.030000", "131018.037500", "131020.047500", "131022.055000", "131024.062500", "131026.070000"],
      "ContentTime": ["130541.093000", "130541.093000", "130541.093000", "130541.109000", "130541.109000", "130541.109000", "130541.125000", "130541.125000", "130541.125000", "130541.125000", "130541.125000", "130541.125000", "130541.125000", "130541.140000", "130541.140000", "130541.140000", "130541.140000", "130541.140000", "130541.140000", "130541.140000", "130621.078000", "130621.078000", "130621.078000", "130621.078000", "130621.078000", "130621.078000", "130621.078000", "130621.078000", "130621.093000", "130621.093000", "130621.093000", "130621.093000", "130621.093000", "130621.093000", "130621.093000", "130621.093000", "130621.093000", "130621.109000", "130621.109000", "130621.109000", "130701.078000", "130701.078000", "130701.078000", "130701.078000", "130701.078000", "130701.078000", "130701.078000", "130701.078000", "130701.093000", "130701.093000", "130701.093000", "130701.093000", "130701.093000", "130701.093000", "130701.093000", "130701.093000", "130701.109000", "130701.109000", "130701.109000", "130701.109000", "130741.078000", "130741.078000", "130741.078000", "130741.078000", "130741.078000", "130741.093000", "130741.093000", "130741.093000", "130741.093000", "130741.093000", "130741.093000", "130741.093000", "130741.109000", "130741.109000", "130741.109000", "130741.109000", "130741.109000", "130741.125000", "130741.125000", "130741.125000", "130821.078000", "130821.078000", "130821.078000", "130821.078000", "130821.078000", "130821.093000", "130821.093000", "130821.093000", "130821.093000", "130821.109000", "130821.109000", "130821.109000", "130821.109000", "130821.109000", "130821.109000", "130821.109000", "130821.125000", "130821.125000", "130821.125000", "130821.125000", "130901.078000", "130901.078000", "130901.078000", "130901.078000", "130901.078000", "130901.078000", "130901.078000", "130901.078000", "130901.078000", "130901.093000", "130901.093000", "130901.093000", "130901.093000", "130901.093000", "130901.093000", "130901.093000", "130901.109000", "130901.109000", "130901.109000", "130901.109000", "130941.078000", "130941.078000", "130941.078000", "130941.078000", "130941.078000", "130941.078000", "130941.078000", "130941.078000", "130941.093000", "130941.093000", "130941.093000", "130941.093000", "130941.093000", "130941.093000", "130941.093000", "130941.093000", "130941.109000", "130941.109000", "130941.109000", "130941.109000", "131021.078000", "131021.078000", "131021.078000", "131021.078000", "131021.078000", "131021.078000", "131021.078000", "131021.078000", "131021.093000", "131021.093000", "131021.093000", "131021.093000", "131021.093000", "131021.093000", "131021.093000", "131021.109000", "131021.109000", "131021.109000", "131021.109000", "131021.109000", "131027.546000", "131027.546000", "131027.562000", "131027.562000"],
      "InstanceCreationTime": ["130541.093000", "130541.093000", "130541.093000", "130541.109000", "130541.109000", "130541.109000", "130541.125000", "130541.125000", "130541.125000", "130541.125000", "130541.125000", "130541.125000", "130541.125000", "130541.140000", "130541.140000", "130541.140000", "130541.140000", "130541.140000", "130541.140000", "130541.140000", "130621.078000", "130621.078000", "130621.078000", "130621.078000", "130621.078000", "130621.078000", "130621.078000", "130621.078000", "130621.093000", "130621.093000", "130621.093000", "130621.093000", "130621.093000", "130621.093000", "130621.093000", "130621.093000", "130621.093000", "130621.109000", "130621.109000", "130621.109000", "130701.078000", "130701.078000", "130701.078000", "130701.078000", "130701.078000", "130701.078000", "130701.078000", "130701.078000", "130701.093000", "130701.093000", "130701.093000", "130701.093000", "130701.093000", "130701.093000", "130701.093000", "130701.093000", "130701.109000", "130701.109000", "130701.109000", "130701.109000", "130741.078000", "130741.078000", "130741.078000", "130741.078000", "130741.078000", "130741.093000", "130741.093000", "130741.093000", "130741.093000", "130741.093000", "130741.093000", "130741.093000", "130741.109000", "130741.109000", "130741.109000", "130741.109000", "130741.109000", "130741.125000", "130741.125000", "130741.125000", "130821.078000", "130821.078000", "130821.078000", "130821.078000", "130821.078000", "130821.093000", "130821.093000", "130821.093000", "130821.093000", "130821.109000", "130821.109000", "130821.109000", "130821.109000", "130821.109000", "130821.109000", "130821.109000", "130821.125000", "130821.125000", "130821.125000", "130821.125000", "130901.078000", "130901.078000", "130901.078000", "130901.078000", "130901.078000", "130901.078000", "130901.078000", "130901.078000", "130901.078000", "130901.093000", "130901.093000", "130901.093000", "130901.093000", "130901.093000", "130901.093000", "130901.093000", "130901.109000", "130901.109000", "130901.109000", "130901.109000", "130941.078000", "130941.078000", "130941.078000", "130941.078000", "130941.078000", "130941.078000", "130941.078000", "130941.078000", "130941.093000", "130941.093000", "130941.093000", "130941.093000", "130941.093000", "130941.093000", "130941.093000", "130941.093000", "130941.109000", "130941.109000", "130941.109000", "130941.109000", "131021.078000", "131021.078000", "131021.078000", "131021.078000", "131021.078000", "131021.078000", "131021.078000", "131021.078000", "131021.093000", "131021.093000", "131021.093000", "131021.093000", "131021.093000", "131021.093000", "131021.093000", "131021.109000", "131021.109000", "131021.109000", "131021.109000", "131021.109000", "131027.546000", "131027.546000", "131027.562000", "131027.562000"],
      "InstanceNumber": [1, 2, 3, 4, 5, 6, 7, 8, 9, 10, 11, 12, 13, 14, 15, 16, 17, 18, 19, 20, 21, 22, 23, 24, 25, 26, 27, 28, 29, 30, 31, 32, 33, 34, 35, 36, 37, 38, 39, 40, 41, 42, 43, 44, 45, 46, 47, 48, 49, 50, 51, 52, 53, 54, 55, 56, 57, 58, 59, 60, 61, 62, 63, 64, 65, 66, 67, 68, 69, 70, 71, 72, 73, 74, 75, 76, 77, 78, 79, 80, 81, 82, 83, 84, 85, 86, 87, 88, 89, 90, 91, 92, 93, 94, 95, 96, 97, 98, 99, 100, 101, 102, 103, 104, 105, 106, 107, 108, 109, 110, 111, 112, 113, 114, 115, 116, 117, 118, 119, 120, 121, 122, 123, 124, 125, 126, 127, 128, 129, 130, 131, 132, 133, 134, 135, 136, 137, 138, 139, 140, 141, 142, 143, 144, 145, 146, 147, 148, 149, 150, 151, 152, 153, 154, 155, 156, 157, 158, 159, 160, 161, 162, 163, 164],
      "LargestImagePixelValue": [1935, 1946, 1922, 1917, 1892, 1900, 1904, 1871, 1902, 1879, 1897, 1894, 1879, 1887, 1869, 1902, 1882, 1879, 1875, 1852, 1916, 1874, 1864, 1869, 1854, 1897, 1848, 1881, 1876, 1897, 1888, 1896, 1892, 1878, 1875, 1874, 1865, 1847, 1861, 1862, 1836, 1855, 1877, 1885, 1877, 1851, 1872, 1882, 1859, 1842, 1865, 1865, 1850, 1869, 1845, 1827, 1847, 1861, 1831, 1843, 1835, 1842, 1861, 1872, 1854, 1859, 1896, 1901, 1855, 1874, 1849, 1876, 1868, 1832, 1869, 1860, 1854, 1852, 1848, 1854, 1841, 1882, 1901, 1858, 1848, 1854, 1833, 1850, 1885, 1855, 1855, 1878, 1848, 1869, 1855, 1838, 1868, 1884, 1852, 1842, 1833, 1907, 1855, 1865, 1856, 1848, 1844, 1880, 1847, 1902, 1855, 1857, 1852, 1866, 1868, 1839, 1866, 1852, 1835, 1831, 1830, 1882, 1839, 1866, 1860, 1854, 1847, 1840, 1865, 1842, 1845, 1876, 1861, 1861, 1860, 1854, 1850, 1841, 1836, 1848, 1883, 1873, 1846, 1875, 1860, 1858, 1876, 1870, 1875, 1860, 1859, 1865, 1864, 1887, 1854, 1875, 1870, 1868, 1889, 1875, 1870, 1868, 1879, 1882],
      "WindowCenter": [750.0, 748.0, 749.0, 749.0, 748.0, 748.0, 748.0, 749.0, 749.0, 749.0, 749.0, 749.0, 748.0, 748.0, 748.0, 748.0, 748.0, 748.0, 748.0, 748.0, 748.0, 748.0, 748.0, 748.0, 748.0, 748.0, 748.0, 748.0, 748.0, 748.0, 749.0, 749.0, 749.0, 748.0, 748.0, 749.0, 748.0, 747.0, 748.0, 748.0, 748.0, 748.0, 748.0, 749.0, 749.0, 749.0, 748.0, 748.0, 748.0, 748.0, 749.0, 748.0, 748.0, 748.0, 747.0, 749.0, 748.0, 748.0, 748.0, 748.0, 749.0, 748.0, 746.0, 747.0, 748.0, 750.0, 750.0, 749.0, 748.0, 749.0, 749.0, 748.0, 748.0, 748.0, 748.0, 748.0, 748.0, 748.0, 747.0, 748.0, 748.0, 748.0, 749.0, 748.0, 747.0, 748.0, 748.0, 748.0, 748.0, 748.0, 747.0, 748.0, 748.0, 748.0, 748.0, 747.0, 748.0, 748.0, 748.0, 748.0, 748.0, 748.0, 749.0, 749.0, 749.0, 749.0, 749.0, 749.0, 749.0, 748.0, 748.0, 749.0, 749.0, 749.0, 749.0, 749.0, 748.0, 748.0, 748.0, 748.0, 748.0, 748.0, 748.0, 749.0, 748.0, 749.0, 749.0, 749.0, 749.0, 748.0, 748.0, 749.0, 748.0, 748.0, 750.0, 750.0, 750.0, 749.0, 747.0, 747.0, 747.0, 748.0, 749.0, 749.0, 749.0, 749.0, 750.0, 750.0, 750.0, 749.0, 749.0, 750.0, 749.0, 750.0, 749.0, 749.0, 749.0, 748.0, 748.0, 749.0, 748.0, 748.0, 749.0, 749.0],
      "WindowWidth": [1661.0, 1655.0, 1657.0, 1656.0, 1653.0, 1653.0, 1656.0, 1657.0, 1657.0, 1656.0, 1657.0, 1656.0, 1654.0, 1654.0, 1653.0, 1655.0, 1655.0, 1655.0, 1656.0, 1654.0, 1655.0, 1656.0, 1655.0, 1654.0, 1655.0, 1654.0, 1653.0, 1654.0, 1655.0, 1655.0, 1657.0, 1659.0, 1659.0, 1655.0, 1655.0, 1657.0, 1654.0, 1652.0, 1654.0, 1654.0, 1654.0, 1654.0, 1657.0, 1657.0, 1658.0, 1656.0, 1656.0, 1655.0, 1654.0, 1656.0, 1658.0, 1655.0, 1654.0, 1653.0, 1653.0, 1656.0, 1655.0, 1654.0, 1654.0, 1656.0, 1656.0, 1654.0, 1650.0, 1653.0, 1656.0, 1659.0, 1660.0, 1658.0, 1655.0, 1657.0, 1657.0, 1656.0, 1656.0, 1655.0, 1655.0, 1654.0, 1654.0, 1653.0, 1653.0, 1654.0, 1655.0, 1656.0, 1656.0, 1654.0, 1652.0, 1653.0, 1655.0, 1654.0, 1655.0, 1653.0, 1652.0, 1654.0, 1654.0, 1656.0, 1654.0, 1652.0, 1653.0, 1656.0, 1655.0, 1655.0, 1655.0, 1655.0, 1656.0, 1658.0, 1657.0, 1655.0, 1656.0, 1658.0, 1656.0, 1653.0, 1653.0, 1657.0, 1657.0, 1657.0, 1656.0, 1655.0, 1654.0, 1654.0, 1654.0, 1655.0, 1653.0, 1654.0, 1655.0, 1656.0, 1654.0, 1656.0, 1656.0, 1656.0, 1656.0, 1654.0, 1655.0, 1657.0, 1653.0, 1654.0, 1659.0, 1660.0, 1660.0, 1655.0, 1652.0, 1649.0, 1650.0, 1654.0, 1656.0, 1657.0, 1657.0, 1658.0, 1659.0, 1659.0, 1659.0, 1657.0, 1658.0, 1659.0, 1658.0, 1659.0, 1658.0, 1658.0, 1656.0, 1654.0, 1654.0, 1656.0, 1655.0, 1653.0, 1656.0, 1657.0]
    },
    "slices": {}
  }
}