{
  "AcquisitionMatrixPE": 64,
  "AcquisitionNumber": 1,
  "AcquisitionTime": "13:12:34.480000",
  "BandwidthPerPixelPhaseEncode": 33.967,
  "BaseResolution": 64,
  "CoilCombinationMethod": "Sum of Squares",
  "CoilString": "C:HEA;HEP",
  "ConversionSoftware": "dcm2niix",
  "ConversionSoftwareVersion": "v1.0.20220720",
  "DerivedVendorReportedEchoSpacing": 0.000460005,
  "DeviceSerialNumber": "35193",
  "DwellTime": 3.1e-06,
  "EchoTime": 0.03,
  "EffectiveEchoSpacing": 0.000460005,
  "FlipAngle": 90,
  "HeudiconvVersion": "1.1.6",
  "ImageOrientationPatientDICOM": [1, 0, 0, 0, 1, 0],
  "ImageOrientationText": "Tra",
  "ImageType": [
    "ORIGINAL",
    "PRIMARY",
    "M",
    "ND",
    "MOSAIC"
],
  "ImagingFrequency": 123.254,
  "InPlanePhaseEncodingDirectionDICOM": "COL",
  "InstitutionAddress": "Xinjiekouwai Street No 19,Beijing,Haidian District,CN,100875",
  "InstitutionName": "BNU MRI Center",
  "InstitutionalDepartmentName": "Department",
  "MRAcquisitionType": "2D",
  "MagneticFieldStrength": 3,
  "Manufacturer": "Siemens",
  "ManufacturersModelName": "TrioTim",
  "MatrixCoilMode": "SENSE",
  "Modality": "MR",
  "NonlinearGradientCorrection": false,
  "PartialFourier": 1,
  "PatientPosition": "HFS",
  "PercentPhaseFOV": 100,
  "PercentSampling": 100,
  "PhaseEncodingDirection": "j-",
  "PhaseEncodingSteps": 64,
  "PhaseResolution": 1,
  "PixelBandwidth": 2520,
  "ProcedureStepDescription": "BNU_cst_2015^Guo.TaoMei",
  "ProtocolName": "ge_func_3x3x4_164",
  "PulseSequenceDetails": "%SiemensSeq%\\ep2d_bold",
  "ReceiveCoilName": "HeadMatrix",
  "ReconMatrixPE": 64,
  "RepetitionTime": 2,
  "SAR": 0.134377,
  "ScanOptions": "FS",
  "ScanningSequence": "EP",
  "SequenceName": "*epfid2d1_64",
  "SequenceVariant": "SK",
  "SeriesDescription": "ge_func_3x3x4_164",
  "SeriesNumber": 5,
  "ShimSetting": [-4500, -19444, -9857, 1012, -94, -541, -98, -95],
  "SliceThickness": 4,
  "SliceTiming": [0, 1.035, 0.06, 1.095, 0.1225, 1.155, 0.1825, 1.2175, 0.2425, 1.2775, 0.305, 1.3375, 0.365, 1.4, 0.425, 1.46, 0.4875, 1.52, 0.5475, 1.5825, 0.6075, 1.6425, 0.67, 1.7025, 0.73, 1.765, 0.79, 1.825, 0.8525, 1.885, 0.9125, 1.9475, 0.9725],
  "SoftwareVersions": "syngo MR B17",
  "SpacingBetweenSlices": 4.6,
  "StationName": "MRC35193",
  "TaskName": "LanguageControl",
  "TotalReadoutTime": 0.0289803,
  "TxRefAmp": 319.945,
  "dcmmeta_affine": [
    [-3.125, 0.0, 0.0, 106.74698638916016],
    [0.0, 3.125, 0.0, -89.45331573486328],
    [0.0, 0.0, 4.599999904632568, -66.17831420898438],
    [0.0, 0.0, 0.0, 1.0]
],
  "dcmmeta_reorient_transform": [
    [0.0, -1.0, 0.0, 63.0],
    [1.0, 0.0, 0.0, 0.0],
    [0.0, 0.0, 1.0, 0.0],
    [0.0, 0.0, 0.0, 1.0]
],
  "dcmmeta_shape": [64, 64, 33, 164],
  "dcmmeta_slice_dim": 2,
  "dcmmeta_version": 0.6,
  "global": {
    "const": {
      "AcquisitionMatrix": [64, 0, 0, 64],
      "AngioFlag": "N",
      "BitsAllocated": 16,
      "BitsStored": 12,
      "Columns": 384,
      "EchoNumbers": 1,
      "EchoTime": 30.0,
      "EchoTrainLength": 1,
      "FlipAngle": 90.0,
      "HighBit": 11,
      "ImageOrientationPatient": [1.0, 0.0, 0.0, 0.0, 1.0, 0.0],
      "ImagePositionPatient": [-606.74698781967, -607.42168664932, -66.178314208984],
      "ImageType": [
        "ORIGINAL",
        "PRIMARY",
        "M",
        "ND",
        "MOSAIC"
],
      "ImagedNucleus": "1H",
      "ImagingFrequency": 123.253714,
      "InPlanePhaseEncodingDirection": "COL",
      "MRAcquisitionType": "2D",
      "MagneticFieldStrength": 3.0,
      "Manufacturer": "SIEMENS",
      "ManufacturerModelName": "TrioTim",
      "Modality": "MR",
      "NumberOfAverages": 1.0,
      "NumberOfPhaseEncodingSteps": 64,
      "PercentPhaseFieldOfView": 100.0,
      "PercentSampling": 100.0,
      "PerformedProcedureStepStartTime": "124939.562000",
      "PhotometricInterpretation": "MONOCHROME2",
      "PixelBandwidth": 2520.0,
      "PixelRepresentation": 0,
      "PixelSpacing": [3.125, 3.125],
      "ProtocolName": "ge_func_3x3x4_164",
      "RepetitionTime": 2000.0,
      "Rows": 384,
      "SAR": 0.13437728401794,
      "SamplesPerPixel": 1,
      "ScanOptions": "FS",
      "ScanningSequence": "EP",
      "SequenceName": "*epfid2d1_64",
      "SequenceVariant": "SK",
      "SeriesDescription": "ge_func_3x3x4_164",
      "SeriesNumber": 5,
      "SeriesTime": "131332.468000",
      "SliceLocation": -66.178314208984,
      "SliceThickness": 4.0,
      "SmallestImagePixelValue": 0,
      "SoftwareVersions": "syngo MR B17",
      "SpacingBetweenSlices": 4.6000001430511,
      "SpecificCharacterSet": "ISO_IR 100",
      "StudyID": "1",
      "StudyTime": "124939.484000",
      "TransmitCoilName": "Body",
      "VariableFlipAngleFlag": "N",
      "WindowCenterWidthExplanation": "Algo1",
      "dBdt": 0.0},
    "slices": {}
  },
  "time": {
    "samples": {
      "AcquisitionNumber": [1, 2, 3, 4, 5, 6, 7, 8, 9, 10, 11, 12, 13, 14, 15, 16, 17, 18, 19, 20, 21, 22, 23, 24, 25, 26, 27, 28, 29, 30, 31, 32, 33, 34, 35, 36, 37, 38, 39, 40, 41, 42, 43, 44, 45, 46, 47, 48, 49, 50, 51, 52, 53, 54, 55, 56, 57, 58, 59, 60, 61, 62, 63, 64, 65, 66, 67, 68, 69, 70, 71, 72, 73, 74, 75, 76, 77, 78, 79, 80, 81, 82, 83, 84, 85, 86, 87, 88, 89, 90, 91, 92, 93, 94, 95, 96, 97, 98, 99, 100, 101, 102, 103, 104, 105, 106, 107, 108, 109, 110, 111, 112, 113, 114, 115, 116, 117, 118, 119, 120, 121, 122, 123, 124, 125, 126, 127, 128, 129, 130, 131, 132, 133, 134, 135, 136, 137, 138, 139, 140, 141, 142, 143, 144, 145, 146, 147, 148, 149, 150, 151, 152, 153, 154, 155, 156, 157, 158, 159, 160, 161, 162, 163, 164],
      "AcquisitionTime": ["131234.480000", "131236.487500", "131238.497500", "131240.505000", "131242.512500", "131244.520000", "131246.527500", "131248.537500", "131250.545000", "131252.552500", "131254.560000", "131256.570000", "131258.577500", "131300.585000", "131302.592500", "131304.600000", "131306.610000", "131308.617500", "131310.625000", "131312.632500", "131314.640000", "131316.650000", "131318.657500", "131320.665000", "131322.672500", "131324.680000", "131326.690000", "131328.697500", "131330.705000", "131332.712500", "131334.722500", "131336.730000", "131338.737500", "131340.745000", "131342.752500", "131344.762500", "131346.770000", "131348.777500", "131350.785000", "131352.792500", "131354.802500", "131356.810000", "131358.817500", "131400.825000", "131402.835000", "131404.842500", "131406.850000", "131408.857500", "131410.865000", "131412.875000", "131414.882500", "131416.890000", "131418.897500", "131420.905000", "131422.915000", "131424.922500", "131426.930000", "131428.937500", "131430.947500", "131432.955000", "131434.962500", "131436.970000", "131438.977500", "131440.987500", "131442.995000", "131445.002500", "131447.010000", "131449.017500", "131451.027500", "131453.035000", "131455.042500", "131457.050000", "131459.057500", "131501.067500", "131503.075000", "131505.082500", "131507.090000", "131509.100000", "131511.107500", "131513.115000", "131515.122500", "131517.130000", "131519.140000", "131521.147500", "131523.155000", "131525.162500", "131527.170000", "131529.180000", "131531.187500", "131533.195000", "131535.202500", "131537.212500", "131539.220000", "131541.227500", "131543.235000", "131545.242500", "131547.252500", "131549.260000", "131551.267500", "131553.275000", "131555.282500", "131557.292500", "131559.300000", "131601.307500", "131603.315000", "131605.325000", "131607.332500", "131609.340000", "131611.347500", "131613.355000", "131615.365000", "131617.372500", "131619.380000", "131621.387500", "131623.395000", "131625.405000", "131627.412500", "131629.420000", "131631.427500", "131633.435000", "131635.445000", "131637.452500", "131639.460000", "131641.467500", "131643.477500", "131645.485000", "131647.492500", "131649.500000", "131651.507500", "131653.517500", "131655.525000", "131657.532500", "131659.540000", "131701.547500", "131703.557500", "131705.565000", "131707.572500", "131709.580000", "131711.590000", "131713.597500", "131715.605000", "131717.612500", "131719.620000", "131721.630000", "131723.637500", "131725.645000", "131727.652500", "131729.660000", "131731.670000", "131733.677500", "131735.685000", "131737.692500", "131739.702500", "131741.710000", "131743.717500", "131745.725000", "131747.732500", "131749.742500", "131751.750000", "131753.757500", "131755.765000", "131757.772500", "131759.782500", "131801.790000"],
      "ContentTime": ["131332.468000", "131332.468000", "131332.468000", "131332.468000", "131332.484000", "131332.484000", "131332.484000", "131332.484000", "131332.484000", "131332.484000", "131332.484000", "131332.484000", "131332.500000", "131332.500000", "131332.500000", "131332.500000", "131332.500000", "131332.500000", "131332.515000", "131332.515000", "131332.515000", "131332.515000", "131332.515000", "131332.515000", "131332.515000", "131332.531000", "131332.531000", "131332.531000", "131412.468000", "131412.468000", "131412.468000", "131412.468000", "131412.468000", "131412.468000", "131412.468000", "131412.468000", "131412.484000", "131412.484000", "131412.484000", "131412.484000", "131412.500000", "131412.500000", "131412.500000", "131412.500000", "131412.500000", "131412.500000", "131412.500000", "131412.500000", "131452.468000", "131452.468000", "131452.468000", "131452.468000", "131452.468000", "131452.484000", "131452.484000", "131452.484000", "131452.500000", "131452.500000", "131452.515000", "131452.515000", "131452.515000", "131452.515000", "131452.515000", "131452.515000", "131452.515000", "131452.531000", "131452.531000", "131452.531000", "131532.468000", "131532.468000", "131532.468000", "131532.468000", "131532.468000", "131532.468000", "131532.468000", "131532.484000", "131532.484000", "131532.484000", "131532.500000", "131532.500000", "131532.500000", "131532.500000", "131532.500000", "131532.500000", "131532.500000", "131532.515000", "131532.515000", "131532.515000", "131612.468000", "131612.468000", "131612.468000", "131612.468000", "131612.468000", "131612.468000", "131612.468000", "131612.484000", "131612.484000", "131612.484000", "131612.484000", "131612.484000", "131612.500000", "131612.500000", "131612.500000", "131612.500000", "131612.500000", "131612.500000", "131612.500000", "131612.515000", "131652.468000", "131652.468000", "131652.468000", "131652.468000", "131652.468000", "131652.484000", "131652.484000", "131652.484000", "131652.484000", "131652.484000", "131652.484000", "131652.484000", "131652.500000", "131652.500000", "131652.500000", "131652.500000", "131652.500000", "131652.500000", "131652.500000", "131652.500000", "131732.468000", "131732.468000", "131732.468000", "131732.468000", "131732.468000", "131732.484000", "131732.484000", "131732.484000", "131732.484000", "131732.484000", "131732.484000", "131732.500000", "131732.500000", "131732.500000", "131732.500000", "131732.500000", "131732.500000", "131732.500000", "131732.500000", "131732.515000", "131803.140000", "131803.140000", "131803.156000", "131803.156000", "131803.156000", "131803.156000", "131803.156000", "131803.156000", "131803.156000", "131803.156000", "131803.171000", "131803.171000", "131803.171000", "131803.171000", "131803.171000", "131803.171000"],
      "InstanceCreationTime": ["131332.468000", "131332.468000", "131332.468000", "131332.468000", "131332.484000", "131332.484000", "131332.484000", "131332.484000", "131332.484000", "131332.484000", "131332.484000", "131332.484000", "131332.500000", "131332.500000", "131332.500000", "131332.500000", "131332.500000", "131332.500000", "131332.515000", "131332.515000", "131332.515000", "131332.515000", "131332.515000", "131332.515000", "131332.515000", "131332.531000", "131332.531000", "131332.531000", "131412.468000", "131412.468000", "131412.468000", "131412.468000", "131412.468000", "131412.468000", "131412.468000", "131412.468000", "131412.484000", "131412.484000", "131412.484000", "131412.484000", "131412.500000", "131412.500000", "131412.500000", "131412.500000", "131412.500000", "131412.500000", "131412.500000", "131412.500000", "131452.468000", "131452.468000", "131452.468000", "131452.468000", "131452.468000", "131452.484000", "131452.484000", "131452.484000", "131452.500000", "131452.500000", "131452.515000", "131452.515000", "131452.515000", "131452.515000", "131452.515000", "131452.515000", "131452.515000", "131452.531000", "131452.531000", "131452.531000", "131532.468000", "131532.468000", "131532.468000", "131532.468000", "131532.468000", "131532.468000", "131532.468000", "131532.484000", "131532.484000", "131532.484000", "131532.500000", "131532.500000", "131532.500000", "131532.500000", "131532.500000", "131532.500000", "131532.500000", "131532.515000", "131532.515000", "131532.515000", "131612.468000", "131612.468000", "131612.468000", "131612.468000", "131612.468000", "131612.468000", "131612.468000", "131612.484000", "131612.484000", "131612.484000", "131612.484000", "131612.484000", "131612.500000", "131612.500000", "131612.500000", "131612.500000", "131612.500000", "131612.500000", "131612.500000", "131612.515000", "131652.468000", "131652.468000", "131652.468000", "131652.468000", "131652.468000", "131652.484000", "131652.484000", "131652.484000", "131652.484000", "131652.484000", "131652.484000", "131652.484000", "131652.500000", "131652.500000", "131652.500000", "131652.500000", "131652.500000", "131652.500000", "131652.500000", "131652.500000", "131732.468000", "131732.468000", "131732.468000", "131732.468000", "131732.468000", "131732.484000", "131732.484000", "131732.484000", "131732.484000", "131732.484000", "131732.484000", "131732.500000", "131732.500000", "131732.500000", "131732.500000", "131732.500000", "131732.500000", "131732.500000", "131732.500000", "131732.515000", "131803.140000", "131803.140000", "131803.156000", "131803.156000", "131803.156000", "131803.156000", "131803.156000", "131803.156000", "131803.156000", "131803.156000", "131803.171000", "131803.171000", "131803.171000", "131803.171000", "131803.171000", "131803.171000"],
      "InstanceNumber": [1, 2, 3, 4, 5, 6, 7, 8, 9, 10, 11, 12, 13, 14, 15, 16, 17, 18, 19, 20, 21, 22, 23, 24, 25, 26, 27, 28, 29, 30, 31, 32, 33, 34, 35, 36, 37, 38, 39, 40, 41, 42, 43, 44, 45, 46, 47, 48, 49, 50, 51, 52, 53, 54, 55, 56, 57, 58, 59, 60, 61, 62, 63, 64, 65, 66, 67, 68, 69, 70, 71, 72, 73, 74, 75, 76, 77, 78, 79, 80, 81, 82, 83, 84, 85, 86, 87, 88, 89, 90, 91, 92, 93, 94, 95, 96, 97, 98, 99, 100, 101, 102, 103, 104, 105, 106, 107, 108, 109, 110, 111, 112, 113, 114, 115, 116, 117, 118, 119, 120, 121, 122, 123, 124, 125, 126, 127, 128, 129, 130, 131, 132, 133, 134, 135, 136, 137, 138, 139, 140, 141, 142, 143, 144, 145, 146, 147, 148, 149, 150, 151, 152, 153, 154, 155, 156, 157, 158, 159, 160, 161, 162, 163, 164],
      "LargestImagePixelValue": [1927, 1878, 1883, 1889, 1845, 1851, 1869, 1840, 1850, 1842, 1859, 1872, 1849, 1857, 1827, 1854, 1911, 1853, 1866, 1862, 1835, 1856, 1847, 1843, 1843, 1850, 1856, 1860, 1851, 1871, 1867, 1844, 1863, 1872, 1860, 1876, 1863, 1884, 1849, 1855, 1864, 1883, 1870, 1861, 1863, 1869, 1876, 1887, 1884, 1902, 1867, 1882, 1873, 1871, 1900, 1881, 1888, 1879, 1872, 1885, 1881, 1903, 1892, 1874, 1884, 1888, 1895, 1888, 1901, 1895, 1883, 1884, 1888, 1867, 1919, 1886, 1873, 1891, 1882, 1894, 1898, 1907, 1897, 1926, 1881, 1898, 1917, 1910, 1908, 1910, 1902, 1909, 1919, 1895, 1905, 1912, 1905, 1904, 1921, 1915, 1895, 1930, 1909, 1923, 1922, 1904, 1933, 1910, 1945, 1901, 1917, 1933, 1925, 1917, 1911, 1917, 1915, 1910, 1912, 1906, 1913, 1911, 1891, 1895, 1922, 1906, 1933, 1917, 1901, 1907, 1930, 1935, 1908, 1922, 1926, 1932, 1926, 1942, 1926, 1941, 1945, 1920, 1918, 1937, 1939, 1925, 1900, 1934, 1944, 1907, 1946, 1924, 1918, 1940, 1930, 1943, 1923, 1929, 1921, 1933, 1936, 1948, 1921, 1939],
      "WindowCenter": [749.0, 746.0, 747.0, 748.0, 748.0, 747.0, 747.0, 747.0, 748.0, 747.0, 747.0, 747.0, 747.0, 748.0, 748.0, 748.0, 748.0, 747.0, 747.0, 746.0, 747.0, 747.0, 747.0, 748.0, 747.0, 747.0, 747.0, 748.0, 747.0, 747.0, 747.0, 748.0, 748.0, 748.0, 747.0, 747.0, 747.0, 747.0, 747.0, 747.0, 746.0, 748.0, 749.0, 748.0, 748.0, 748.0, 748.0, 748.0, 748.0, 748.0, 747.0, 747.0, 747.0, 748.0, 748.0, 748.0, 748.0, 747.0, 747.0, 747.0, 747.0, 747.0, 747.0, 747.0, 747.0, 748.0, 748.0, 747.0, 747.0, 748.0, 748.0, 748.0, 748.0, 748.0, 748.0, 747.0, 747.0, 748.0, 748.0, 747.0, 747.0, 747.0, 748.0, 749.0, 748.0, 748.0, 748.0, 748.0, 748.0, 748.0, 748.0, 749.0, 749.0, 749.0, 748.0, 748.0, 748.0, 748.0, 748.0, 748.0, 748.0, 748.0, 749.0, 748.0, 748.0, 748.0, 748.0, 749.0, 749.0, 749.0, 749.0, 749.0, 748.0, 748.0, 749.0, 748.0, 749.0, 748.0, 749.0, 749.0, 749.0, 749.0, 748.0, 747.0, 748.0, 749.0, 748.0, 749.0, 749.0, 748.0, 749.0, 750.0, 749.0, 748.0, 748.0, 748.0, 748.0, 748.0, 748.0, 749.0, 749.0, 749.0, 748.0, 748.0, 748.0, 749.0, 748.0, 748.0, 749.0, 748.0, 748.0, 749.0, 749.0, 749.0, 749.0, 749.0, 749.0, 749.0, 749.0, 748.0, 749.0, 749.0, 749.0, 749.0],
      "WindowWidth": [1657.0, 1649.0, 1652.0, 1653.0, 1653.0, 1652.0, 1652.0, 1651.0, 1654.0, 1651.0, 1651.0, 1651.0, 1651.0, 1654.0, 1654.0, 1654.0, 1653.0, 1652.0, 1650.0, 1649.0, 1650.0, 1650.0, 1651.0, 1652.0, 1650.0, 1649.0, 1651.0, 1652.0, 1652.0, 1651.0, 1651.0, 1654.0, 1654.0, 1652.0, 1649.0, 1650.0, 1651.0, 1652.0, 1650.0, 1650.0, 1649.0, 1653.0, 1657.0, 1655.0, 1652.0, 1653.0, 1654.0, 1654.0, 1654.0, 1654.0, 1652.0, 1650.0, 1650.0, 1652.0, 1655.0, 1655.0, 1652.0, 1650.0, 1650.0, 1651.0, 1651.0, 1652.0, 1651.0, 1649.0, 1651.0, 1653.0, 1653.0, 1651.0, 1652.0, 1653.0, 1654.0, 1653.0, 1654.0, 1652.0, 1652.0, 1649.0, 1649.0, 1653.0, 1653.0, 1651.0, 1649.0, 1650.0, 1654.0, 1656.0, 1654.0, 1654.0, 1655.0, 1655.0, 1653.0, 1654.0, 1654.0, 1655.0, 1656.0, 1656.0, 1655.0, 1652.0, 1654.0, 1654.0, 1653.0, 1653.0, 1652.0, 1655.0, 1656.0, 1654.0, 1654.0, 1652.0, 1654.0, 1655.0, 1657.0, 1657.0, 1656.0, 1655.0, 1653.0, 1655.0, 1655.0, 1655.0, 1655.0, 1655.0, 1656.0, 1657.0, 1657.0, 1655.0, 1653.0, 1652.0, 1654.0, 1656.0, 1655.0, 1656.0, 1655.0, 1654.0, 1657.0, 1659.0, 1655.0, 1653.0, 1653.0, 1652.0, 1652.0, 1655.0, 1654.0, 1656.0, 1655.0, 1655.0, 1655.0, 1653.0, 1652.0, 1655.0, 1654.0, 1654.0, 1656.0, 1654.0, 1654.0, 1655.0, 1657.0, 1657.0, 1655.0, 1656.0, 1655.0, 1655.0, 1655.0, 1653.0, 1655.0, 1658.0, 1656.0, 1655.0]
    },
    "slices": {}
  }
}