{
  "AcquisitionMatrixPE": 64,
  "AcquisitionNumber": 1,
  "AcquisitionTime": "12:51:50.985000",
  "BandwidthPerPixelPhaseEncode": 33.967,
  "BaseResolution": 64,
  "CoilCombinationMethod": "Sum of Squares",
  "CoilString": "C:HEA;HEP",
  "ConversionSoftware": "dcm2niix",
  "ConversionSoftwareVersion": "v1.0.20220720",
  "DerivedVendorReportedEchoSpacing": 0.000460005,
  "DeviceSerialNumber": "35193",
  "DwellTime": 3.1e-06,
  "EchoTime": 0.03,
  "EffectiveEchoSpacing": 0.000460005,
  "FlipAngle": 90,
  "HeudiconvVersion": "1.1.6",
  "ImageOrientationPatientDICOM": [1, 0, 0, 0, 1, 0],
  "ImageOrientationText": "Tra",
  "ImageType": [
    "ORIGINAL",
    "PRIMARY",
    "M",
    "ND",
    "MOSAIC"
],
  "ImagingFrequency": 123.254,
  "InPlanePhaseEncodingDirectionDICOM": "COL",
  "InstitutionAddress": "Xinjiekouwai Street No 19,Beijing,Haidian District,CN,100875",
  "InstitutionName": "BNU MRI Center",
  "InstitutionalDepartmentName": "Department",
  "MRAcquisitionType": "2D",
  "MagneticFieldStrength": 3,
  "Manufacturer": "Siemens",
  "ManufacturersModelName": "TrioTim",
  "MatrixCoilMode": "SENSE",
  "Modality": "MR",
  "NonlinearGradientCorrection": false,
  "PartialFourier": 1,
  "PatientPosition": "HFS",
  "PercentPhaseFOV": 100,
  "PercentSampling": 100,
  "PhaseEncodingDirection": "j-",
  "PhaseEncodingSteps": 64,
  "PhaseResolution": 1,
  "PixelBandwidth": 2520,
  "ProcedureStepDescription": "BNU_cst_2015^Guo.TaoMei",
  "ProtocolName": "ge_func_3x3x4_164",
  "PulseSequenceDetails": "%SiemensSeq%\\ep2d_bold",
  "ReceiveCoilName": "HeadMatrix",
  "ReconMatrixPE": 64,
  "RepetitionTime": 2,
  "SAR": 0.134377,
  "ScanOptions": "FS",
  "ScanningSequence": "EP",
  "SequenceName": "*epfid2d1_64",
  "SequenceVariant": "SK",
  "SeriesDescription": "ge_func_3x3x4_164",
  "SeriesNumber": 2,
  "ShimSetting": [-4500, -19444, -9857, 1012, -94, -541, -98, -95],
  "SliceThickness": 4,
  "SliceTiming": [0, 1.0325, 0.06, 1.095, 0.12, 1.155, 0.1825, 1.215, 0.2425, 1.2775, 0.3025, 1.3375, 0.365, 1.3975, 0.425, 1.46, 0.485, 1.52, 0.5475, 1.58, 0.6075, 1.6425, 0.6675, 1.7025, 0.73, 1.7625, 0.79, 1.825, 0.85, 1.885, 0.9125, 1.945, 0.9725],
  "SoftwareVersions": "syngo MR B17",
  "SpacingBetweenSlices": 4.6,
  "StationName": "MRC35193",
  "TaskName": "CognitiveControl",
  "TotalReadoutTime": 0.0289803,
  "TxRefAmp": 319.945,
  "dcmmeta_affine": [
    [-3.125, 0.0, 0.0, 106.74698638916016],
    [0.0, 3.125, 0.0, -89.45331573486328],
    [0.0, 0.0, 4.599999904632568, -66.17831420898438],
    [0.0, 0.0, 0.0, 1.0]
],
  "dcmmeta_reorient_transform": [
    [0.0, -1.0, 0.0, 63.0],
    [1.0, 0.0, 0.0, 0.0],
    [0.0, 0.0, 1.0, 0.0],
    [0.0, 0.0, 0.0, 1.0]
],
  "dcmmeta_shape": [64, 64, 33, 164],
  "dcmmeta_slice_dim": 2,
  "dcmmeta_version": 0.6,
  "global": {
    "const": {
      "AcquisitionMatrix": [64, 0, 0, 64],
      "AngioFlag": "N",
      "BitsAllocated": 16,
      "BitsStored": 12,
      "Columns": 384,
      "EchoNumbers": 1,
      "EchoTime": 30.0,
      "EchoTrainLength": 1,
      "FlipAngle": 90.0,
      "HighBit": 11,
      "ImageOrientationPatient": [1.0, 0.0, 0.0, 0.0, 1.0, 0.0],
      "ImagePositionPatient": [-606.74698781967, -607.42168664932, -66.178314208984],
      "ImageType": [
        "ORIGINAL",
        "PRIMARY",
        "M",
        "ND",
        "MOSAIC"
],
      "ImagedNucleus": "1H",
      "ImagingFrequency": 123.253707,
      "InPlanePhaseEncodingDirection": "COL",
      "MRAcquisitionType": "2D",
      "MagneticFieldStrength": 3.0,
      "Manufacturer": "SIEMENS",
      "ManufacturerModelName": "TrioTim",
      "Modality": "MR",
      "NumberOfAverages": 1.0,
      "NumberOfPhaseEncodingSteps": 64,
      "PercentPhaseFieldOfView": 100.0,
      "PercentSampling": 100.0,
      "PerformedProcedureStepStartTime": "124939.562000",
      "PhotometricInterpretation": "MONOCHROME2",
      "PixelBandwidth": 2520.0,
      "PixelRepresentation": 0,
      "PixelSpacing": [3.125, 3.125],
      "ProtocolName": "ge_func_3x3x4_164",
      "RepetitionTime": 2000.0,
      "Rows": 384,
      "SAR": 0.13437728401794,
      "SamplesPerPixel": 1,
      "ScanOptions": "FS",
      "ScanningSequence": "EP",
      "SequenceName": "*epfid2d1_64",
      "SequenceVariant": "SK",
      "SeriesDescription": "ge_func_3x3x4_164",
      "SeriesNumber": 2,
      "SeriesTime": "125232.468000",
      "SliceLocation": -66.178314208984,
      "SliceThickness": 4.0,
      "SmallestImagePixelValue": 0,
      "SoftwareVersions": "syngo MR B17",
      "SpacingBetweenSlices": 4.6000001430511,
      "SpecificCharacterSet": "ISO_IR 100",
      "StudyID": "1",
      "StudyTime": "124939.484000",
      "TransmitCoilName": "Body",
      "VariableFlipAngleFlag": "N",
      "WindowCenterWidthExplanation": "Algo1",
      "dBdt": 0.0},
    "slices": {}
  },
  "time": {
    "samples": {
      "AcquisitionNumber": [1, 2, 3, 4, 5, 6, 7, 8, 9, 10, 11, 12, 13, 14, 15, 16, 17, 18, 19, 20, 21, 22, 23, 24, 25, 26, 27, 28, 29, 30, 31, 32, 33, 34, 35, 36, 37, 38, 39, 40, 41, 42, 43, 44, 45, 46, 47, 48, 49, 50, 51, 52, 53, 54, 55, 56, 57, 58, 59, 60, 61, 62, 63, 64, 65, 66, 67, 68, 69, 70, 71, 72, 73, 74, 75, 76, 77, 78, 79, 80, 81, 82, 83, 84, 85, 86, 87, 88, 89, 90, 91, 92, 93, 94, 95, 96, 97, 98, 99, 100, 101, 102, 103, 104, 105, 106, 107, 108, 109, 110, 111, 112, 113, 114, 115, 116, 117, 118, 119, 120, 121, 122, 123, 124, 125, 126, 127, 128, 129, 130, 131, 132, 133, 134, 135, 136, 137, 138, 139, 140, 141, 142, 143, 144, 145, 146, 147, 148, 149, 150, 151, 152, 153, 154, 155, 156, 157, 158, 159, 160, 161, 162, 163, 164],
      "AcquisitionTime": ["125150.985000", "125152.992500", "125155.000000", "125157.007500", "125159.017500", "125201.025000", "125203.032500", "125205.040000", "125207.047500", "125209.057500", "125211.065000", "125213.072500", "125215.080000", "125217.087500", "125219.097500", "125221.105000", "125223.112500", "125225.120000", "125227.130000", "125229.137500", "125231.145000", "125233.152500", "125235.160000", "125237.170000", "125239.177500", "125241.185000", "125243.192500", "125245.200000", "125247.210000", "125249.217500", "125251.225000", "125253.232500", "125255.242500", "125257.250000", "125259.257500", "125301.265000", "125303.272500", "125305.282500", "125307.290000", "125309.297500", "125311.305000", "125313.312500", "125315.322500", "125317.330000", "125319.337500", "125321.345000", "125323.355000", "125325.362500", "125327.370000", "125329.377500", "125331.385000", "125333.395000", "125335.402500", "125337.410000", "125339.417500", "125341.425000", "125343.435000", "125345.442500", "125347.450000", "125349.457500", "125351.465000", "125353.475000", "125355.482500", "125357.490000", "125359.497500", "125401.507500", "125403.515000", "125405.522500", "125407.530000", "125409.537500", "125411.547500", "125413.555000", "125415.562500", "125417.570000", "125419.577500", "125421.587500", "125423.595000", "125425.602500", "125427.610000", "125429.620000", "125431.627500", "125433.635000", "125435.642500", "125437.650000", "125439.660000", "125441.667500", "125443.675000", "125445.682500", "125447.690000", "125449.700000", "125451.707500", "125453.715000", "125455.722500", "125457.732500", "125459.740000", "125501.747500", "125503.755000", "125505.762500", "125507.772500", "125509.780000", "125511.787500", "125513.795000", "125515.802500", "125517.812500", "125519.820000", "125521.827500", "125523.835000", "125525.845000", "125527.852500", "125529.860000", "125531.867500", "125533.875000", "125535.885000", "125537.892500", "125539.900000", "125541.907500", "125543.915000", "125545.925000", "125547.932500", "125549.940000", "125551.947500", "125553.955000", "125555.965000", "125557.972500", "125559.980000", "125601.987500", "125603.997500", "125606.005000", "125608.012500", "125610.020000", "125612.027500", "125614.037500", "125616.045000", "125618.052500", "125620.060000", "125622.067500", "125624.077500", "125626.085000", "125628.092500", "125630.100000", "125632.110000", "125634.117500", "125636.125000", "125638.132500", "125640.140000", "125642.150000", "125644.157500", "125646.165000", "125648.172500", "125650.180000", "125652.190000", "125654.197500", "125656.205000", "125658.212500", "125700.222500", "125702.230000", "125704.237500", "125706.245000", "125708.252500", "125710.262500", "125712.270000", "125714.277500", "125716.285000", "125718.292500"],
      "ContentTime": ["125232.468000", "125232.468000", "125232.468000", "125232.468000", "125232.484000", "125232.484000", "125232.500000", "125232.500000", "125232.500000", "125232.500000", "125232.500000", "125232.500000", "125232.500000", "125232.500000", "125232.500000", "125232.515000", "125232.515000", "125232.515000", "125232.515000", "125232.515000", "125312.468000", "125312.468000", "125312.468000", "125312.468000", "125312.468000", "125312.468000", "125312.468000", "125312.468000", "125312.484000", "125312.484000", "125312.484000", "125312.484000", "125312.484000", "125312.484000", "125312.484000", "125312.484000", "125312.500000", "125312.500000", "125312.500000", "125312.500000", "125352.468000", "125352.468000", "125352.468000", "125352.468000", "125352.468000", "125352.468000", "125352.468000", "125352.468000", "125352.484000", "125352.484000", "125352.484000", "125352.484000", "125352.484000", "125352.484000", "125352.484000", "125352.484000", "125352.500000", "125352.500000", "125352.500000", "125352.500000", "125432.468000", "125432.468000", "125432.468000", "125432.468000", "125432.484000", "125432.484000", "125432.484000", "125432.484000", "125432.484000", "125432.500000", "125432.500000", "125432.500000", "125432.500000", "125432.500000", "125432.500000", "125432.500000", "125432.515000", "125432.515000", "125432.531000", "125432.531000", "125512.468000", "125512.468000", "125512.484000", "125512.484000", "125512.484000", "125512.484000", "125512.500000", "125512.500000", "125512.500000", "125512.500000", "125512.500000", "125512.500000", "125512.500000", "125512.515000", "125512.515000", "125512.515000", "125512.515000", "125512.531000", "125512.531000", "125512.531000", "125552.468000", "125552.468000", "125552.468000", "125552.468000", "125552.468000", "125552.484000", "125552.484000", "125552.484000", "125552.484000", "125552.484000", "125552.500000", "125552.500000", "125552.500000", "125552.500000", "125552.500000", "125552.515000", "125552.515000", "125552.515000", "125552.515000", "125552.515000", "125632.468000", "125632.468000", "125632.468000", "125632.468000", "125632.468000", "125632.484000", "125632.484000", "125632.484000", "125632.484000", "125632.484000", "125632.500000", "125632.500000", "125632.500000", "125632.500000", "125632.500000", "125632.500000", "125632.500000", "125632.515000", "125632.515000", "125632.515000", "125712.468000", "125712.468000", "125712.468000", "125712.468000", "125712.468000", "125712.468000", "125712.468000", "125712.468000", "125712.484000", "125712.484000", "125712.484000", "125712.484000", "125712.484000", "125712.500000", "125712.500000", "125712.500000", "125712.500000", "125712.500000", "125712.500000", "125712.515000", "125720.265000", "125720.265000", "125720.265000", "125720.265000"],
      "InstanceCreationTime": ["125232.468000", "125232.468000", "125232.468000", "125232.468000", "125232.484000", "125232.484000", "125232.500000", "125232.500000", "125232.500000", "125232.500000", "125232.500000", "125232.500000", "125232.500000", "125232.500000", "125232.500000", "125232.515000", "125232.515000", "125232.515000", "125232.515000", "125232.515000", "125312.468000", "125312.468000", "125312.468000", "125312.468000", "125312.468000", "125312.468000", "125312.468000", "125312.468000", "125312.484000", "125312.484000", "125312.484000", "125312.484000", "125312.484000", "125312.484000", "125312.484000", "125312.484000", "125312.500000", "125312.500000", "125312.500000", "125312.500000", "125352.468000", "125352.468000", "125352.468000", "125352.468000", "125352.468000", "125352.468000", "125352.468000", "125352.468000", "125352.484000", "125352.484000", "125352.484000", "125352.484000", "125352.484000", "125352.484000", "125352.484000", "125352.484000", "125352.500000", "125352.500000", "125352.500000", "125352.500000", "125432.468000", "125432.468000", "125432.468000", "125432.468000", "125432.484000", "125432.484000", "125432.484000", "125432.484000", "125432.484000", "125432.500000", "125432.500000", "125432.500000", "125432.500000", "125432.500000", "125432.500000", "125432.500000", "125432.515000", "125432.515000", "125432.531000", "125432.531000", "125512.468000", "125512.468000", "125512.484000", "125512.484000", "125512.484000", "125512.484000", "125512.500000", "125512.500000", "125512.500000", "125512.500000", "125512.500000", "125512.500000", "125512.500000", "125512.515000", "125512.515000", "125512.515000", "125512.515000", "125512.531000", "125512.531000", "125512.531000", "125552.468000", "125552.468000", "125552.468000", "125552.468000", "125552.468000", "125552.484000", "125552.484000", "125552.484000", "125552.484000", "125552.484000", "125552.500000", "125552.500000", "125552.500000", "125552.500000", "125552.500000", "125552.515000", "125552.515000", "125552.515000", "125552.515000", "125552.515000", "125632.468000", "125632.468000", "125632.468000", "125632.468000", "125632.468000", "125632.484000", "125632.484000", "125632.484000", "125632.484000", "125632.484000", "125632.500000", "125632.500000", "125632.500000", "125632.500000", "125632.500000", "125632.500000", "125632.500000", "125632.515000", "125632.515000", "125632.515000", "125712.468000", "125712.468000", "125712.468000", "125712.468000", "125712.468000", "125712.468000", "125712.468000", "125712.468000", "125712.484000", "125712.484000", "125712.484000", "125712.484000", "125712.484000", "125712.500000", "125712.500000", "125712.500000", "125712.500000", "125712.500000", "125712.500000", "125712.515000", "125720.265000", "125720.265000", "125720.265000", "125720.265000"],
      "InstanceNumber": [1, 2, 3, 4, 5, 6, 7, 8, 9, 10, 11, 12, 13, 14, 15, 16, 17, 18, 19, 20, 21, 22, 23, 24, 25, 26, 27, 28, 29, 30, 31, 32, 33, 34, 35, 36, 37, 38, 39, 40, 41, 42, 43, 44, 45, 46, 47, 48, 49, 50, 51, 52, 53, 54, 55, 56, 57, 58, 59, 60, 61, 62, 63, 64, 65, 66, 67, 68, 69, 70, 71, 72, 73, 74, 75, 76, 77, 78, 79, 80, 81, 82, 83, 84, 85, 86, 87, 88, 89, 90, 91, 92, 93, 94, 95, 96, 97, 98, 99, 100, 101, 102, 103, 104, 105, 106, 107, 108, 109, 110, 111, 112, 113, 114, 115, 116, 117, 118, 119, 120, 121, 122, 123, 124, 125, 126, 127, 128, 129, 130, 131, 132, 133, 134, 135, 136, 137, 138, 139, 140, 141, 142, 143, 144, 145, 146, 147, 148, 149, 150, 151, 152, 153, 154, 155, 156, 157, 158, 159, 160, 161, 162, 163, 164],
      "LargestImagePixelValue": [2039, 1970, 2005, 2018, 1998, 1999, 1964, 1979, 1943, 1959, 1945, 1953, 1978, 1974, 1927, 1951, 1937, 1943, 1978, 1944, 1968, 1942, 1988, 1932, 1939, 1933, 1950, 1956, 1954, 1936, 1972, 1933, 1959, 1931, 1955, 1948, 1957, 1944, 1953, 1946, 1942, 1946, 1943, 1944, 1943, 1958, 1946, 1958, 1968, 1961, 1959, 1926, 1944, 1940, 1960, 1935, 1947, 1959, 1967, 1937, 1958, 1955, 1960, 1953, 1949, 1963, 1935, 1956, 1963, 1961, 1943, 1952, 1978, 1950, 1969, 1960, 1947, 1973, 1944, 1964, 1981, 1970, 1968, 1956, 1967, 1966, 1974, 1949, 1976, 1956, 1985, 1958, 1973, 1966, 1958, 1970, 1974, 1967, 1954, 1975, 1946, 1949, 1944, 1954, 1958, 1948, 1955, 1931, 1958, 1950, 1954, 1951, 1949, 1956, 1938, 1964, 1953, 1957, 1955, 1946, 1961, 1954, 1945, 1961, 1981, 1959, 1969, 1927, 1958, 1965, 1968, 1966, 1970, 1973, 1945, 1965, 1967, 1952, 1953, 1961, 1970, 1939, 1912, 1950, 1958, 1958, 1931, 1945, 1940, 1956, 1965, 1947, 1948, 1957, 1947, 1969, 1977, 1958, 1968, 1958, 1957, 1973, 1978, 1944],
      "WindowCenter": [747.0, 746.0, 747.0, 747.0, 746.0, 746.0, 746.0, 746.0, 746.0, 746.0, 745.0, 746.0, 747.0, 747.0, 746.0, 746.0, 746.0, 746.0, 746.0, 747.0, 746.0, 747.0, 747.0, 747.0, 746.0, 746.0, 746.0, 747.0, 747.0, 746.0, 747.0, 747.0, 747.0, 747.0, 745.0, 746.0, 746.0, 746.0, 746.0, 746.0, 746.0, 746.0, 747.0, 746.0, 746.0, 746.0, 746.0, 746.0, 745.0, 746.0, 745.0, 745.0, 745.0, 746.0, 748.0, 747.0, 746.0, 745.0, 745.0, 746.0, 746.0, 747.0, 746.0, 746.0, 746.0, 746.0, 746.0, 745.0, 746.0, 747.0, 747.0, 745.0, 746.0, 746.0, 745.0, 745.0, 745.0, 746.0, 746.0, 746.0, 746.0, 746.0, 746.0, 746.0, 746.0, 746.0, 746.0, 746.0, 746.0, 747.0, 746.0, 746.0, 747.0, 747.0, 747.0, 747.0, 747.0, 747.0, 746.0, 745.0, 745.0, 745.0, 746.0, 747.0, 748.0, 748.0, 747.0, 747.0, 746.0, 747.0, 748.0, 748.0, 747.0, 747.0, 747.0, 747.0, 747.0, 746.0, 746.0, 746.0, 746.0, 748.0, 747.0, 746.0, 745.0, 745.0, 746.0, 748.0, 747.0, 746.0, 746.0, 747.0, 746.0, 746.0, 747.0, 747.0, 747.0, 746.0, 747.0, 747.0, 746.0, 747.0, 747.0, 747.0, 747.0, 747.0, 748.0, 748.0, 748.0, 748.0, 748.0, 747.0, 748.0, 748.0, 748.0, 747.0, 747.0, 748.0, 748.0, 748.0, 748.0, 746.0, 747.0, 747.0],
      "WindowWidth": [1655.0, 1650.0, 1655.0, 1654.0, 1651.0, 1650.0, 1651.0, 1649.0, 1649.0, 1649.0, 1648.0, 1651.0, 1652.0, 1652.0, 1650.0, 1651.0, 1650.0, 1649.0, 1651.0, 1652.0, 1650.0, 1653.0, 1653.0, 1653.0, 1650.0, 1649.0, 1650.0, 1652.0, 1652.0, 1651.0, 1653.0, 1653.0, 1652.0, 1651.0, 1648.0, 1650.0, 1651.0, 1650.0, 1650.0, 1649.0, 1651.0, 1651.0, 1652.0, 1650.0, 1648.0, 1648.0, 1649.0, 1649.0, 1646.0, 1649.0, 1647.0, 1645.0, 1645.0, 1650.0, 1655.0, 1654.0, 1651.0, 1647.0, 1648.0, 1650.0, 1650.0, 1651.0, 1649.0, 1650.0, 1651.0, 1650.0, 1650.0, 1647.0, 1649.0, 1652.0, 1651.0, 1647.0, 1649.0, 1648.0, 1647.0, 1648.0, 1646.0, 1650.0, 1649.0, 1649.0, 1651.0, 1650.0, 1651.0, 1649.0, 1651.0, 1650.0, 1651.0, 1649.0, 1652.0, 1652.0, 1650.0, 1650.0, 1652.0, 1652.0, 1653.0, 1653.0, 1654.0, 1653.0, 1650.0, 1648.0, 1648.0, 1647.0, 1649.0, 1654.0, 1657.0, 1656.0, 1653.0, 1652.0, 1651.0, 1652.0, 1654.0, 1655.0, 1652.0, 1654.0, 1654.0, 1654.0, 1652.0, 1649.0, 1650.0, 1649.0, 1650.0, 1655.0, 1653.0, 1648.0, 1647.0, 1646.0, 1651.0, 1654.0, 1653.0, 1649.0, 1649.0, 1651.0, 1649.0, 1651.0, 1654.0, 1653.0, 1651.0, 1651.0, 1652.0, 1651.0, 1649.0, 1652.0, 1651.0, 1652.0, 1652.0, 1652.0, 1654.0, 1656.0, 1655.0, 1656.0, 1654.0, 1653.0, 1655.0, 1657.0, 1656.0, 1653.0, 1653.0, 1654.0, 1656.0, 1656.0, 1654.0, 1651.0, 1653.0, 1653.0]
    },
    "slices": {}
  }
}