{
  "AcquisitionMatrixPE": 64,
  "AcquisitionNumber": 1,
  "AcquisitionTime": "12:58:8.975000",
  "BandwidthPerPixelPhaseEncode": 33.967,
  "BaseResolution": 64,
  "CoilCombinationMethod": "Sum of Squares",
  "CoilString": "C:HEA;HEP",
  "ConversionSoftware": "dcm2niix",
  "ConversionSoftwareVersion": "v1.0.20220720",
  "DerivedVendorReportedEchoSpacing": 0.000460005,
  "DeviceSerialNumber": "35193",
  "DwellTime": 3.1e-06,
  "EchoTime": 0.03,
  "EffectiveEchoSpacing": 0.000460005,
  "FlipAngle": 90,
  "HeudiconvVersion": "1.1.6",
  "ImageOrientationPatientDICOM": [1, 0, 0, 0, 1, 0],
  "ImageOrientationText": "Tra",
  "ImageType": [
    "ORIGINAL",
    "PRIMARY",
    "M",
    "ND",
    "MOSAIC"
],
  "ImagingFrequency": 123.254,
  "InPlanePhaseEncodingDirectionDICOM": "COL",
  "InstitutionAddress": "Xinjiekouwai Street No 19,Beijing,Haidian District,CN,100875",
  "InstitutionName": "BNU MRI Center",
  "InstitutionalDepartmentName": "Department",
  "MRAcquisitionType": "2D",
  "MagneticFieldStrength": 3,
  "Manufacturer": "Siemens",
  "ManufacturersModelName": "TrioTim",
  "MatrixCoilMode": "SENSE",
  "Modality": "MR",
  "NonlinearGradientCorrection": false,
  "PartialFourier": 1,
  "PatientPosition": "HFS",
  "PercentPhaseFOV": 100,
  "PercentSampling": 100,
  "PhaseEncodingDirection": "j-",
  "PhaseEncodingSteps": 64,
  "PhaseResolution": 1,
  "PixelBandwidth": 2520,
  "ProcedureStepDescription": "BNU_cst_2015^Guo.TaoMei",
  "ProtocolName": "ge_func_3x3x4_164",
  "PulseSequenceDetails": "%SiemensSeq%\\ep2d_bold",
  "ReceiveCoilName": "HeadMatrix",
  "ReconMatrixPE": 64,
  "RepetitionTime": 2,
  "SAR": 0.134377,
  "ScanOptions": "FS",
  "ScanningSequence": "EP",
  "SequenceName": "*epfid2d1_64",
  "SequenceVariant": "SK",
  "SeriesDescription": "ge_func_3x3x4_164",
  "SeriesNumber": 3,
  "ShimSetting": [-4500, -19444, -9857, 1012, -94, -541, -98, -95],
  "SliceThickness": 4,
  "SliceTiming": [0, 1.0325, 0.06, 1.095, 0.12, 1.155, 0.1825, 1.215, 0.2425, 1.2775, 0.3025, 1.3375, 0.365, 1.3975, 0.425, 1.46, 0.485, 1.52, 0.5475, 1.58, 0.6075, 1.6425, 0.6675, 1.7025, 0.73, 1.7625, 0.79, 1.825, 0.85, 1.885, 0.9125, 1.945, 0.9725],
  "SoftwareVersions": "syngo MR B17",
  "SpacingBetweenSlices": 4.6,
  "StationName": "MRC35193",
  "TaskName": "CognitiveControl",
  "TotalReadoutTime": 0.0289803,
  "TxRefAmp": 319.945,
  "dcmmeta_affine": [
    [-3.125, 0.0, 0.0, 106.74698638916016],
    [0.0, 3.125, 0.0, -89.45331573486328],
    [0.0, 0.0, 4.599999904632568, -66.17831420898438],
    [0.0, 0.0, 0.0, 1.0]
],
  "dcmmeta_reorient_transform": [
    [0.0, -1.0, 0.0, 63.0],
    [1.0, 0.0, 0.0, 0.0],
    [0.0, 0.0, 1.0, 0.0],
    [0.0, 0.0, 0.0, 1.0]
],
  "dcmmeta_shape": [64, 64, 33, 164],
  "dcmmeta_slice_dim": 2,
  "dcmmeta_version": 0.6,
  "global": {
    "const": {
      "AcquisitionMatrix": [64, 0, 0, 64],
      "AngioFlag": "N",
      "BitsAllocated": 16,
      "BitsStored": 12,
      "Columns": 384,
      "EchoNumbers": 1,
      "EchoTime": 30.0,
      "EchoTrainLength": 1,
      "FlipAngle": 90.0,
      "HighBit": 11,
      "ImageOrientationPatient": [1.0, 0.0, 0.0, 0.0, 1.0, 0.0],
      "ImagePositionPatient": [-606.74698781967, -607.42168664932, -66.178314208984],
      "ImageType": [
        "ORIGINAL",
        "PRIMARY",
        "M",
        "ND",
        "MOSAIC"
],
      "ImagedNucleus": "1H",
      "ImagingFrequency": 123.253708,
      "InPlanePhaseEncodingDirection": "COL",
      "MRAcquisitionType": "2D",
      "MagneticFieldStrength": 3.0,
      "Manufacturer": "SIEMENS",
      "ManufacturerModelName": "TrioTim",
      "Modality": "MR",
      "NumberOfAverages": 1.0,
      "NumberOfPhaseEncodingSteps": 64,
      "PercentPhaseFieldOfView": 100.0,
      "PercentSampling": 100.0,
      "PerformedProcedureStepStartTime": "124939.562000",
      "PhotometricInterpretation": "MONOCHROME2",
      "PixelBandwidth": 2520.0,
      "PixelRepresentation": 0,
      "PixelSpacing": [3.125, 3.125],
      "ProtocolName": "ge_func_3x3x4_164",
      "RepetitionTime": 2000.0,
      "Rows": 384,
      "SAR": 0.13437728401794,
      "SamplesPerPixel": 1,
      "ScanOptions": "FS",
      "ScanningSequence": "EP",
      "SequenceName": "*epfid2d1_64",
      "SequenceVariant": "SK",
      "SeriesDescription": "ge_func_3x3x4_164",
      "SeriesNumber": 3,
      "SeriesTime": "125859.125000",
      "SliceLocation": -66.178314208984,
      "SliceThickness": 4.0,
      "SmallestImagePixelValue": 0,
      "SoftwareVersions": "syngo MR B17",
      "SpacingBetweenSlices": 4.6000001430511,
      "SpecificCharacterSet": "ISO_IR 100",
      "StudyID": "1",
      "StudyTime": "124939.484000",
      "TransmitCoilName": "Body",
      "VariableFlipAngleFlag": "N",
      "WindowCenterWidthExplanation": "Algo1",
      "dBdt": 0.0},
    "slices": {}
  },
  "time": {
    "samples": {
      "AcquisitionNumber": [1, 2, 3, 4, 5, 6, 7, 8, 9, 10, 11, 12, 13, 14, 15, 16, 17, 18, 19, 20, 21, 22, 23, 24, 25, 26, 27, 28, 29, 30, 31, 32, 33, 34, 35, 36, 37, 38, 39, 40, 41, 42, 43, 44, 45, 46, 47, 48, 49, 50, 51, 52, 53, 54, 55, 56, 57, 58, 59, 60, 61, 62, 63, 64, 65, 66, 67, 68, 69, 70, 71, 72, 73, 74, 75, 76, 77, 78, 79, 80, 81, 82, 83, 84, 85, 86, 87, 88, 89, 90, 91, 92, 93, 94, 95, 96, 97, 98, 99, 100, 101, 102, 103, 104, 105, 106, 107, 108, 109, 110, 111, 112, 113, 114, 115, 116, 117, 118, 119, 120, 121, 122, 123, 124, 125, 126, 127, 128, 129, 130, 131, 132, 133, 134, 135, 136, 137, 138, 139, 140, 141, 142, 143, 144, 145, 146, 147, 148, 149, 150, 151, 152, 153, 154, 155, 156, 157, 158, 159, 160, 161, 162, 163, 164],
      "AcquisitionTime": ["125808.975000", "125810.982500", "125812.990000", "125814.997500", "125817.007500", "125819.015000", "125821.022500", "125823.030000", "125825.037500", "125827.047500", "125829.055000", "125831.062500", "125833.070000", "125835.077500", "125837.087500", "125839.095000", "125841.102500", "125843.110000", "125845.120000", "125847.127500", "125849.135000", "125851.142500", "125853.150000", "125855.160000", "125857.167500", "125859.175000", "125901.182500", "125903.190000", "125905.200000", "125907.207500", "125909.215000", "125911.222500", "125913.232500", "125915.240000", "125917.247500", "125919.255000", "125921.262500", "125923.272500", "125925.280000", "125927.287500", "125929.295000", "125931.302500", "125933.312500", "125935.320000", "125937.327500", "125939.335000", "125941.345000", "125943.352500", "125945.360000", "125947.367500", "125949.375000", "125951.385000", "125953.392500", "125955.400000", "125957.407500", "125959.415000", "130001.425000", "130003.432500", "130005.440000", "130007.447500", "130009.455000", "130011.465000", "130013.472500", "130015.480000", "130017.487500", "130019.497500", "130021.505000", "130023.512500", "130025.520000", "130027.527500", "130029.537500", "130031.545000", "130033.552500", "130035.560000", "130037.567500", "130039.577500", "130041.585000", "130043.592500", "130045.600000", "130047.610000", "130049.617500", "130051.625000", "130053.632500", "130055.640000", "130057.650000", "130059.657500", "130101.665000", "130103.672500", "130105.680000", "130107.690000", "130109.697500", "130111.705000", "130113.712500", "130115.722500", "130117.730000", "130119.737500", "130121.745000", "130123.752500", "130125.762500", "130127.770000", "130129.777500", "130131.785000", "130133.792500", "130135.802500", "130137.810000", "130139.817500", "130141.825000", "130143.832500", "130145.842500", "130147.850000", "130149.857500", "130151.865000", "130153.875000", "130155.882500", "130157.890000", "130159.897500", "130201.905000", "130203.915000", "130205.922500", "130207.930000", "130209.937500", "130211.945000", "130213.955000", "130215.962500", "130217.970000", "130219.977500", "130221.987500", "130223.995000", "130226.002500", "130228.010000", "130230.017500", "130232.027500", "130234.035000", "130236.042500", "130238.050000", "130240.057500", "130242.067500", "130244.075000", "130246.082500", "130248.090000", "130250.100000", "130252.107500", "130254.115000", "130256.122500", "130258.130000", "130300.140000", "130302.147500", "130304.155000", "130306.162500", "130308.170000", "130310.180000", "130312.187500", "130314.195000", "130316.202500", "130318.210000", "130320.220000", "130322.227500", "130324.235000", "130326.242500", "130328.252500", "130330.260000", "130332.267500", "130334.275000", "130336.282500"],
      "ContentTime": ["125859.125000", "125859.125000", "125859.125000", "125859.125000", "125859.140000", "125859.140000", "125859.156000", "125859.156000", "125859.156000", "125859.156000", "125859.156000", "125859.156000", "125859.156000", "125859.156000", "125859.171000", "125859.171000", "125859.171000", "125859.171000", "125859.171000", "125859.171000", "125859.171000", "125859.187000", "125859.187000", "125859.187000", "125939.125000", "125939.125000", "125939.125000", "125939.125000", "125939.125000", "125939.125000", "125939.125000", "125939.140000", "125939.140000", "125939.140000", "125939.156000", "125939.156000", "125939.156000", "125939.156000", "125939.156000", "125939.156000", "125939.156000", "125939.171000", "125939.171000", "125939.171000", "130019.125000", "130019.125000", "130019.125000", "130019.125000", "130019.125000", "130019.125000", "130019.125000", "130019.125000", "130019.140000", "130019.140000", "130019.140000", "130019.140000", "130019.140000", "130019.140000", "130019.140000", "130019.140000", "130019.156000", "130019.156000", "130019.156000", "130019.156000", "130059.125000", "130059.125000", "130059.125000", "130059.125000", "130059.125000", "130059.125000", "130059.125000", "130059.125000", "130059.140000", "130059.140000", "130059.140000", "130059.140000", "130059.140000", "130059.140000", "130059.140000", "130059.140000", "130059.156000", "130059.156000", "130059.156000", "130059.156000", "130139.125000", "130139.125000", "130139.125000", "130139.125000", "130139.125000", "130139.140000", "130139.140000", "130139.140000", "130139.140000", "130139.156000", "130139.156000", "130139.156000", "130139.156000", "130139.156000", "130139.171000", "130139.171000", "130139.171000", "130139.171000", "130139.187000", "130139.187000", "130219.125000", "130219.125000", "130219.125000", "130219.125000", "130219.125000", "130219.125000", "130219.125000", "130219.125000", "130219.140000", "130219.140000", "130219.140000", "130219.140000", "130219.140000", "130219.140000", "130219.140000", "130219.156000", "130219.156000", "130219.156000", "130219.156000", "130219.156000", "130259.125000", "130259.125000", "130259.125000", "130259.125000", "130259.125000", "130259.125000", "130259.125000", "130259.140000", "130259.140000", "130259.140000", "130259.140000", "130259.140000", "130259.140000", "130259.140000", "130259.140000", "130259.156000", "130259.156000", "130259.156000", "130259.156000", "130259.156000", "130337.687000", "130337.687000", "130337.703000", "130337.703000", "130337.703000", "130337.703000", "130337.703000", "130337.703000", "130337.718000", "130337.718000", "130337.718000", "130337.718000", "130337.718000", "130337.718000", "130337.734000", "130337.734000", "130337.734000", "130337.734000", "130337.734000", "130337.734000"],
      "InstanceCreationTime": ["125859.125000", "125859.125000", "125859.125000", "125859.125000", "125859.140000", "125859.140000", "125859.156000", "125859.156000", "125859.156000", "125859.156000", "125859.156000", "125859.156000", "125859.156000", "125859.156000", "125859.171000", "125859.171000", "125859.171000", "125859.171000", "125859.171000", "125859.171000", "125859.171000", "125859.187000", "125859.187000", "125859.187000", "125939.125000", "125939.125000", "125939.125000", "125939.125000", "125939.125000", "125939.125000", "125939.125000", "125939.140000", "125939.140000", "125939.140000", "125939.156000", "125939.156000", "125939.156000", "125939.156000", "125939.156000", "125939.156000", "125939.156000", "125939.171000", "125939.171000", "125939.171000", "130019.125000", "130019.125000", "130019.125000", "130019.125000", "130019.125000", "130019.125000", "130019.125000", "130019.125000", "130019.140000", "130019.140000", "130019.140000", "130019.140000", "130019.140000", "130019.140000", "130019.140000", "130019.140000", "130019.156000", "130019.156000", "130019.156000", "130019.156000", "130059.125000", "130059.125000", "130059.125000", "130059.125000", "130059.125000", "130059.125000", "130059.125000", "130059.125000", "130059.140000", "130059.140000", "130059.140000", "130059.140000", "130059.140000", "130059.140000", "130059.140000", "130059.140000", "130059.156000", "130059.156000", "130059.156000", "130059.156000", "130139.125000", "130139.125000", "130139.125000", "130139.125000", "130139.125000", "130139.140000", "130139.140000", "130139.140000", "130139.140000", "130139.156000", "130139.156000", "130139.156000", "130139.156000", "130139.156000", "130139.171000", "130139.171000", "130139.171000", "130139.171000", "130139.187000", "130139.187000", "130219.125000", "130219.125000", "130219.125000", "130219.125000", "130219.125000", "130219.125000", "130219.125000", "130219.125000", "130219.140000", "130219.140000", "130219.140000", "130219.140000", "130219.140000", "130219.140000", "130219.140000", "130219.156000", "130219.156000", "130219.156000", "130219.156000", "130219.156000", "130259.125000", "130259.125000", "130259.125000", "130259.125000", "130259.125000", "130259.125000", "130259.125000", "130259.140000", "130259.140000", "130259.140000", "130259.140000", "130259.140000", "130259.140000", "130259.140000", "130259.140000", "130259.156000", "130259.156000", "130259.156000", "130259.156000", "130259.156000", "130337.687000", "130337.687000", "130337.703000", "130337.703000", "130337.703000", "130337.703000", "130337.703000", "130337.703000", "130337.718000", "130337.718000", "130337.718000", "130337.718000", "130337.718000", "130337.718000", "130337.734000", "130337.734000", "130337.734000", "130337.734000", "130337.734000", "130337.734000"],
      "InstanceNumber": [1, 2, 3, 4, 5, 6, 7, 8, 9, 10, 11, 12, 13, 14, 15, 16, 17, 18, 19, 20, 21, 22, 23, 24, 25, 26, 27, 28, 29, 30, 31, 32, 33, 34, 35, 36, 37, 38, 39, 40, 41, 42, 43, 44, 45, 46, 47, 48, 49, 50, 51, 52, 53, 54, 55, 56, 57, 58, 59, 60, 61, 62, 63, 64, 65, 66, 67, 68, 69, 70, 71, 72, 73, 74, 75, 76, 77, 78, 79, 80, 81, 82, 83, 84, 85, 86, 87, 88, 89, 90, 91, 92, 93, 94, 95, 96, 97, 98, 99, 100, 101, 102, 103, 104, 105, 106, 107, 108, 109, 110, 111, 112, 113, 114, 115, 116, 117, 118, 119, 120, 121, 122, 123, 124, 125, 126, 127, 128, 129, 130, 131, 132, 133, 134, 135, 136, 137, 138, 139, 140, 141, 142, 143, 144, 145, 146, 147, 148, 149, 150, 151, 152, 153, 154, 155, 156, 157, 158, 159, 160, 161, 162, 163, 164],
      "LargestImagePixelValue": [2014, 1969, 1956, 1948, 1943, 1924, 1946, 1939, 1953, 1928, 1942, 1935, 1937, 1928, 1943, 1922, 1965, 1934, 1958, 1942, 1947, 1902, 1944, 1927, 1946, 1924, 1939, 1928, 1937, 1924, 1938, 1919, 1919, 1946, 1942, 1926, 1951, 1945, 1942, 1940, 1917, 1927, 1929, 1948, 1941, 1944, 1928, 1942, 1936, 1931, 1939, 1935, 1914, 1958, 1943, 1920, 1940, 1949, 1914, 1931, 1930, 1936, 1943, 1925, 1953, 1922, 1932, 1947, 1943, 1944, 1935, 1939, 1926, 1930, 1963, 1929, 1932, 1926, 1963, 1947, 1954, 1930, 1936, 1918, 1947, 1955, 1945, 1935, 1942, 1919, 1933, 1949, 1928, 1958, 1927, 1950, 1935, 1917, 1943, 1922, 1939, 1951, 1929, 1943, 1934, 1924, 1945, 1948, 1941, 1950, 1969, 1952, 1951, 1947, 1942, 1944, 1938, 1927, 1967, 1939, 1967, 1960, 1943, 1955, 1948, 1952, 1970, 1930, 1935, 1963, 1970, 1961, 1944, 1927, 1958, 1928, 1936, 1940, 1928, 1967, 1932, 1938, 1948, 1948, 1938, 1959, 1932, 1955, 1965, 1926, 1944, 1961, 1964, 1930, 1965, 1948, 1953, 1938, 1948, 1965, 1931, 1931, 1946, 1960],
      "WindowCenter": [749.0, 747.0, 747.0, 747.0, 747.0, 746.0, 747.0, 746.0, 746.0, 745.0, 746.0, 748.0, 748.0, 747.0, 748.0, 747.0, 747.0, 748.0, 747.0, 747.0, 747.0, 747.0, 748.0, 747.0, 747.0, 746.0, 746.0, 747.0, 748.0, 748.0, 748.0, 748.0, 747.0, 747.0, 748.0, 747.0, 747.0, 747.0, 747.0, 746.0, 747.0, 747.0, 747.0, 747.0, 747.0, 747.0, 747.0, 747.0, 747.0, 747.0, 747.0, 747.0, 747.0, 747.0, 747.0, 747.0, 747.0, 748.0, 747.0, 747.0, 747.0, 748.0, 748.0, 747.0, 747.0, 748.0, 747.0, 748.0, 748.0, 748.0, 747.0, 748.0, 748.0, 747.0, 747.0, 747.0, 747.0, 747.0, 748.0, 747.0, 748.0, 748.0, 748.0, 748.0, 748.0, 748.0, 748.0, 748.0, 749.0, 749.0, 749.0, 748.0, 748.0, 748.0, 747.0, 748.0, 749.0, 749.0, 748.0, 747.0, 748.0, 748.0, 748.0, 748.0, 748.0, 748.0, 748.0, 749.0, 749.0, 749.0, 748.0, 748.0, 748.0, 748.0, 749.0, 749.0, 748.0, 748.0, 748.0, 748.0, 748.0, 747.0, 747.0, 748.0, 748.0, 748.0, 748.0, 748.0, 748.0, 747.0, 748.0, 748.0, 747.0, 748.0, 748.0, 748.0, 748.0, 748.0, 748.0, 749.0, 749.0, 748.0, 748.0, 748.0, 748.0, 749.0, 748.0, 748.0, 748.0, 748.0, 748.0, 748.0, 748.0, 748.0, 748.0, 748.0, 748.0, 748.0, 748.0, 748.0, 748.0, 748.0, 748.0, 748.0],
      "WindowWidth": [1659.0, 1652.0, 1653.0, 1652.0, 1652.0, 1650.0, 1651.0, 1650.0, 1648.0, 1647.0, 1650.0, 1655.0, 1655.0, 1653.0, 1654.0, 1652.0, 1652.0, 1654.0, 1654.0, 1652.0, 1653.0, 1652.0, 1657.0, 1654.0, 1652.0, 1649.0, 1650.0, 1652.0, 1655.0, 1655.0, 1655.0, 1655.0, 1652.0, 1653.0, 1654.0, 1654.0, 1653.0, 1652.0, 1651.0, 1650.0, 1653.0, 1653.0, 1654.0, 1653.0, 1652.0, 1652.0, 1651.0, 1653.0, 1654.0, 1653.0, 1652.0, 1653.0, 1653.0, 1653.0, 1653.0, 1653.0, 1653.0, 1654.0, 1653.0, 1653.0, 1653.0, 1655.0, 1655.0, 1653.0, 1654.0, 1654.0, 1652.0, 1654.0, 1656.0, 1654.0, 1652.0, 1654.0, 1657.0, 1653.0, 1652.0, 1652.0, 1653.0, 1654.0, 1656.0, 1653.0, 1654.0, 1657.0, 1656.0, 1654.0, 1655.0, 1655.0, 1655.0, 1655.0, 1657.0, 1658.0, 1657.0, 1655.0, 1654.0, 1656.0, 1653.0, 1655.0, 1658.0, 1657.0, 1654.0, 1653.0, 1654.0, 1656.0, 1656.0, 1654.0, 1656.0, 1655.0, 1656.0, 1658.0, 1659.0, 1657.0, 1654.0, 1655.0, 1654.0, 1655.0, 1659.0, 1657.0, 1655.0, 1655.0, 1656.0, 1655.0, 1654.0, 1653.0, 1653.0, 1655.0, 1656.0, 1654.0, 1654.0, 1656.0, 1655.0, 1653.0, 1654.0, 1655.0, 1653.0, 1655.0, 1655.0, 1656.0, 1656.0, 1655.0, 1656.0, 1657.0, 1658.0, 1655.0, 1655.0, 1656.0, 1656.0, 1657.0, 1656.0, 1655.0, 1656.0, 1654.0, 1655.0, 1655.0, 1655.0, 1655.0, 1655.0, 1657.0, 1655.0, 1654.0, 1653.0, 1654.0, 1655.0, 1654.0, 1657.0, 1657.0]
    },
    "slices": {}
  }
}