{
  "AcquisitionMatrixPE": 64,
  "AcquisitionNumber": 1,
  "AcquisitionTime": "11:10:14.895000",
  "BandwidthPerPixelPhaseEncode": 33.967,
  "BaseResolution": 64,
  "CoilCombinationMethod": "Sum of Squares",
  "CoilString": "C:HEA;HEP",
  "ConversionSoftware": "dcm2niix",
  "ConversionSoftwareVersion": "v1.0.20220720",
  "DerivedVendorReportedEchoSpacing": 0.000460005,
  "DeviceSerialNumber": "35193",
  "DwellTime": 3.1e-06,
  "EchoTime": 0.03,
  "EffectiveEchoSpacing": 0.000460005,
  "FlipAngle": 90,
  "HeudiconvVersion": "1.1.6",
  "ImageOrientationPatientDICOM": [0.999469, 0.00872657, 0.0314096, -0.00872227, 0.999962, -0.000274108],
  "ImageOrientationText": "Tra>Sag(1.8)",
  "ImageType": [
    "ORIGINAL",
    "PRIMARY",
    "M",
    "ND",
    "MOSAIC"
],
  "ImagingFrequency": 123.254,
  "InPlanePhaseEncodingDirectionDICOM": "COL",
  "InstitutionAddress": "Xinjiekouwai Street No 19,Beijing,Haidian District,CN,100875",
  "InstitutionName": "BNU MRI Center",
  "InstitutionalDepartmentName": "Department",
  "MRAcquisitionType": "2D",
  "MagneticFieldStrength": 3,
  "Manufacturer": "Siemens",
  "ManufacturersModelName": "TrioTim",
  "MatrixCoilMode": "SENSE",
  "Modality": "MR",
  "NonlinearGradientCorrection": false,
  "PartialFourier": 1,
  "PatientPosition": "HFS",
  "PercentPhaseFOV": 100,
  "PercentSampling": 100,
  "PhaseEncodingDirection": "j-",
  "PhaseEncodingSteps": 64,
  "PhaseResolution": 1,
  "PixelBandwidth": 2520,
  "ProcedureStepDescription": "BNU_cst_2015^Guo.TaoMei",
  "ProtocolName": "ge_func_3x3x4_164",
  "PulseSequenceDetails": "%SiemensSeq%\\ep2d_bold",
  "ReceiveCoilName": "HeadMatrix",
  "ReconMatrixPE": 64,
  "RepetitionTime": 2,
  "SAR": 0.123899,
  "ScanOptions": "FS",
  "ScanningSequence": "EP",
  "SequenceName": "*epfid2d1_64",
  "SequenceVariant": "SK",
  "SeriesDescription": "ge_func_3x3x4_164",
  "SeriesNumber": 2,
  "ShimSetting": [-4500, -19384, -9852, 1299, -163, -312, 158, 32],
  "SliceThickness": 4,
  "SliceTiming": [0, 1.035, 0.0625, 1.095, 0.1225, 1.1575, 0.1825, 1.2175, 0.245, 1.2775, 0.305, 1.34, 0.365, 1.4, 0.4275, 1.46, 0.4875, 1.5225, 0.5475, 1.5825, 0.61, 1.6425, 0.67, 1.705, 0.73, 1.765, 0.7925, 1.825, 0.8525, 1.8875, 0.9125, 1.9475, 0.975],
  "SoftwareVersions": "syngo MR B17",
  "SpacingBetweenSlices": 4.6,
  "StationName": "MRC35193",
  "TaskName": "LanguageControl",
  "TotalReadoutTime": 0.0289803,
  "TxRefAmp": 336.61,
  "dcmmeta_affine": [
    [-3.1233391761779785, -0.027257077395915985, 0.14448948204517365, 92.40769958496094],
    [-0.02727053500711918, 3.1248810291290283, 1.0878691281135389e-09, -88.57696533203125],
    [0.09815488010644913, 0.0008565874304622412, 4.5977301597595215, -77.40589141845703],
    [0.0, 0.0, 0.0, 1.0]
],
  "dcmmeta_reorient_transform": [
    [0.0, -1.0, 0.0, 63.0],
    [1.0, 0.0, 0.0, 0.0],
    [0.0, 0.0, 1.0, 0.0],
    [0.0, 0.0, 0.0, 1.0]
],
  "dcmmeta_shape": [64, 64, 33, 164],
  "dcmmeta_slice_dim": 2,
  "dcmmeta_version": 0.6,
  "global": {
    "const": {
      "AcquisitionMatrix": [64, 0, 0, 64],
      "AngioFlag": "N",
      "BitsAllocated": 16,
      "BitsStored": 12,
      "Columns": 384,
      "EchoNumbers": 1,
      "EchoTime": 30.0,
      "EchoTrainLength": 1,
      "FlipAngle": 90.0,
      "HighBit": 11,
      "ImageOrientationPatient": [0.99946850193848, 0.00872657107378, 0.03140956208152, -0.0087222650454, 0.99996192275371, -0.0002741079768],
      "ImagePositionPatient": [-586.06362119466, -612.63478294582, -92.919652894945],
      "ImageType": [
        "ORIGINAL",
        "PRIMARY",
        "M",
        "ND",
        "MOSAIC"
],
      "ImagedNucleus": "1H",
      "ImagingFrequency": 123.253704,
      "InPlanePhaseEncodingDirection": "COL",
      "MRAcquisitionType": "2D",
      "MagneticFieldStrength": 3.0,
      "Manufacturer": "SIEMENS",
      "ManufacturerModelName": "TrioTim",
      "Modality": "MR",
      "NumberOfAverages": 1.0,
      "NumberOfPhaseEncodingSteps": 64,
      "PercentPhaseFieldOfView": 100.0,
      "PercentSampling": 100.0,
      "PerformedProcedureStepStartTime": "110752.218000",
      "PhotometricInterpretation": "MONOCHROME2",
      "PixelBandwidth": 2520.0,
      "PixelRepresentation": 0,
      "PixelSpacing": [3.125, 3.125],
      "ProtocolName": "ge_func_3x3x4_164",
      "RepetitionTime": 2000.0,
      "Rows": 384,
      "SAR": 0.12389906803596,
      "SamplesPerPixel": 1,
      "ScanOptions": "FS",
      "ScanningSequence": "EP",
      "SequenceName": "*epfid2d1_64",
      "SequenceVariant": "SK",
      "SeriesDescription": "ge_func_3x3x4_164",
      "SeriesNumber": 2,
      "SeriesTime": "111108.890000",
      "SliceLocation": -74.465099868219,
      "SliceThickness": 4.0,
      "SmallestImagePixelValue": 0,
      "SoftwareVersions": "syngo MR B17",
      "SpacingBetweenSlices": 4.5999999820149,
      "SpecificCharacterSet": "ISO_IR 100",
      "StudyID": "1",
      "StudyTime": "110751.390000",
      "TransmitCoilName": "Body",
      "VariableFlipAngleFlag": "N",
      "WindowCenterWidthExplanation": "Algo1",
      "dBdt": 0.0},
    "slices": {}
  },
  "time": {
    "samples": {
      "AcquisitionNumber": [1, 2, 3, 4, 5, 6, 7, 8, 9, 10, 11, 12, 13, 14, 15, 16, 17, 18, 19, 20, 21, 22, 23, 24, 25, 26, 27, 28, 29, 30, 31, 32, 33, 34, 35, 36, 37, 38, 39, 40, 41, 42, 43, 44, 45, 46, 47, 48, 49, 50, 51, 52, 53, 54, 55, 56, 57, 58, 59, 60, 61, 62, 63, 64, 65, 66, 67, 68, 69, 70, 71, 72, 73, 74, 75, 76, 77, 78, 79, 80, 81, 82, 83, 84, 85, 86, 87, 88, 89, 90, 91, 92, 93, 94, 95, 96, 97, 98, 99, 100, 101, 102, 103, 104, 105, 106, 107, 108, 109, 110, 111, 112, 113, 114, 115, 116, 117, 118, 119, 120, 121, 122, 123, 124, 125, 126, 127, 128, 129, 130, 131, 132, 133, 134, 135, 136, 137, 138, 139, 140, 141, 142, 143, 144, 145, 146, 147, 148, 149, 150, 151, 152, 153, 154, 155, 156, 157, 158, 159, 160, 161, 162, 163, 164],
      "AcquisitionTime": ["111014.895000", "111016.902500", "111018.912500", "111020.920000", "111022.927500", "111024.935000", "111026.945000", "111028.952500", "111030.960000", "111032.967500", "111034.975000", "111036.985000", "111038.992500", "111041.000000", "111043.007500", "111045.015000", "111047.025000", "111049.032500", "111051.040000", "111053.047500", "111055.057500", "111057.065000", "111059.072500", "111101.080000", "111103.087500", "111105.097500", "111107.105000", "111109.112500", "111111.120000", "111113.127500", "111115.137500", "111117.145000", "111119.152500", "111121.160000", "111123.170000", "111125.177500", "111127.185000", "111129.192500", "111131.200000", "111133.210000", "111135.217500", "111137.225000", "111139.232500", "111141.240000", "111143.250000", "111145.257500", "111147.265000", "111149.272500", "111151.280000", "111153.290000", "111155.297500", "111157.305000", "111159.312500", "111201.322500", "111203.330000", "111205.337500", "111207.345000", "111209.352500", "111211.362500", "111213.370000", "111215.377500", "111217.385000", "111219.392500", "111221.402500", "111223.410000", "111225.417500", "111227.425000", "111229.435000", "111231.442500", "111233.450000", "111235.457500", "111237.465000", "111239.475000", "111241.482500", "111243.490000", "111245.497500", "111247.505000", "111249.515000", "111251.522500", "111253.530000", "111255.537500", "111257.547500", "111259.555000", "111301.562500", "111303.570000", "111305.577500", "111307.587500", "111309.595000", "111311.602500", "111313.610000", "111315.617500", "111317.627500", "111319.635000", "111321.642500", "111323.650000", "111325.657500", "111327.667500", "111329.675000", "111331.682500", "111333.690000", "111335.700000", "111337.707500", "111339.715000", "111341.722500", "111343.730000", "111345.740000", "111347.747500", "111349.755000", "111351.762500", "111353.770000", "111355.780000", "111357.787500", "111359.795000", "111401.802500", "111403.812500", "111405.820000", "111407.827500", "111409.835000", "111411.842500", "111413.852500", "111415.860000", "111417.867500", "111419.875000", "111421.882500", "111423.892500", "111425.900000", "111427.907500", "111429.915000", "111431.925000", "111433.932500", "111435.940000", "111437.947500", "111439.955000", "111441.965000", "111443.972500", "111445.980000", "111447.987500", "111449.995000", "111452.005000", "111454.012500", "111456.020000", "111458.027500", "111500.037500", "111502.045000", "111504.052500", "111506.060000", "111508.067500", "111510.077500", "111512.085000", "111514.092500", "111516.100000", "111518.107500", "111520.117500", "111522.125000", "111524.132500", "111526.140000", "111528.147500", "111530.157500", "111532.165000", "111534.172500", "111536.180000", "111538.190000", "111540.197500", "111542.205000"],
      "ContentTime": ["111108.890000", "111108.906000", "111108.906000", "111108.906000", "111108.906000", "111108.906000", "111108.906000", "111108.906000", "111108.906000", "111108.906000", "111108.921000", "111108.921000", "111108.921000", "111108.921000", "111108.921000", "111108.921000", "111108.921000", "111108.921000", "111108.937000", "111108.937000", "111108.937000", "111108.937000", "111108.953000", "111108.953000", "111108.953000", "111108.968000", "111148.890000", "111148.890000", "111148.890000", "111148.890000", "111148.906000", "111148.906000", "111148.906000", "111148.906000", "111148.906000", "111148.906000", "111148.921000", "111148.921000", "111148.921000", "111148.921000", "111148.921000", "111148.921000", "111148.921000", "111148.921000", "111148.937000", "111148.937000", "111228.890000", "111228.890000", "111228.890000", "111228.890000", "111228.890000", "111228.906000", "111228.906000", "111228.906000", "111228.906000", "111228.921000", "111228.921000", "111228.921000", "111228.921000", "111228.937000", "111228.937000", "111228.937000", "111228.937000", "111228.937000", "111228.937000", "111228.937000", "111308.890000", "111308.890000", "111308.890000", "111308.906000", "111308.906000", "111308.906000", "111308.906000", "111308.906000", "111308.906000", "111308.906000", "111308.921000", "111308.921000", "111308.937000", "111308.937000", "111308.937000", "111308.937000", "111308.937000", "111308.937000", "111308.937000", "111308.953000", "111348.890000", "111348.906000", "111348.906000", "111348.906000", "111348.906000", "111348.906000", "111348.906000", "111348.906000", "111348.906000", "111348.921000", "111348.921000", "111348.921000", "111348.921000", "111348.921000", "111348.921000", "111348.921000", "111348.921000", "111348.937000", "111348.937000", "111348.937000", "111428.890000", "111428.890000", "111428.890000", "111428.890000", "111428.890000", "111428.906000", "111428.906000", "111428.906000", "111428.906000", "111428.906000", "111428.906000", "111428.906000", "111428.921000", "111428.921000", "111428.921000", "111428.921000", "111428.921000", "111428.921000", "111428.921000", "111428.921000", "111508.890000", "111508.890000", "111508.890000", "111508.890000", "111508.890000", "111508.906000", "111508.906000", "111508.906000", "111508.906000", "111508.906000", "111508.906000", "111508.906000", "111508.906000", "111508.921000", "111508.921000", "111508.921000", "111508.921000", "111508.921000", "111508.921000", "111508.921000", "111543.500000", "111543.500000", "111543.500000", "111543.500000", "111543.500000", "111543.500000", "111543.515000", "111543.515000", "111543.515000", "111543.515000", "111543.531000", "111543.531000", "111543.531000", "111543.531000", "111543.531000", "111543.531000", "111543.546000", "111543.546000"],
      "InstanceCreationTime": ["111108.890000", "111108.906000", "111108.906000", "111108.906000", "111108.906000", "111108.906000", "111108.906000", "111108.906000", "111108.906000", "111108.906000", "111108.921000", "111108.921000", "111108.921000", "111108.921000", "111108.921000", "111108.921000", "111108.921000", "111108.921000", "111108.937000", "111108.937000", "111108.937000", "111108.937000", "111108.953000", "111108.953000", "111108.953000", "111108.968000", "111148.890000", "111148.890000", "111148.890000", "111148.890000", "111148.906000", "111148.906000", "111148.906000", "111148.906000", "111148.906000", "111148.906000", "111148.921000", "111148.921000", "111148.921000", "111148.921000", "111148.921000", "111148.921000", "111148.921000", "111148.921000", "111148.937000", "111148.937000", "111228.890000", "111228.890000", "111228.890000", "111228.890000", "111228.890000", "111228.906000", "111228.906000", "111228.906000", "111228.906000", "111228.921000", "111228.921000", "111228.921000", "111228.921000", "111228.937000", "111228.937000", "111228.937000", "111228.937000", "111228.937000", "111228.937000", "111228.937000", "111308.890000", "111308.890000", "111308.890000", "111308.906000", "111308.906000", "111308.906000", "111308.906000", "111308.906000", "111308.906000", "111308.906000", "111308.921000", "111308.921000", "111308.937000", "111308.937000", "111308.937000", "111308.937000", "111308.937000", "111308.937000", "111308.937000", "111308.953000", "111348.890000", "111348.906000", "111348.906000", "111348.906000", "111348.906000", "111348.906000", "111348.906000", "111348.906000", "111348.906000", "111348.921000", "111348.921000", "111348.921000", "111348.921000", "111348.921000", "111348.921000", "111348.921000", "111348.921000", "111348.937000", "111348.937000", "111348.937000", "111428.890000", "111428.890000", "111428.890000", "111428.890000", "111428.890000", "111428.906000", "111428.906000", "111428.906000", "111428.906000", "111428.906000", "111428.906000", "111428.906000", "111428.921000", "111428.921000", "111428.921000", "111428.921000", "111428.921000", "111428.921000", "111428.921000", "111428.921000", "111508.890000", "111508.890000", "111508.890000", "111508.890000", "111508.890000", "111508.906000", "111508.906000", "111508.906000", "111508.906000", "111508.906000", "111508.906000", "111508.906000", "111508.906000", "111508.921000", "111508.921000", "111508.921000", "111508.921000", "111508.921000", "111508.921000", "111508.921000", "111543.500000", "111543.500000", "111543.500000", "111543.500000", "111543.500000", "111543.500000", "111543.515000", "111543.515000", "111543.515000", "111543.515000", "111543.531000", "111543.531000", "111543.531000", "111543.531000", "111543.531000", "111543.531000", "111543.546000", "111543.546000"],
      "InstanceNumber": [1, 2, 3, 4, 5, 6, 7, 8, 9, 10, 11, 12, 13, 14, 15, 16, 17, 18, 19, 20, 21, 22, 23, 24, 25, 26, 27, 28, 29, 30, 31, 32, 33, 34, 35, 36, 37, 38, 39, 40, 41, 42, 43, 44, 45, 46, 47, 48, 49, 50, 51, 52, 53, 54, 55, 56, 57, 58, 59, 60, 61, 62, 63, 64, 65, 66, 67, 68, 69, 70, 71, 72, 73, 74, 75, 76, 77, 78, 79, 80, 81, 82, 83, 84, 85, 86, 87, 88, 89, 90, 91, 92, 93, 94, 95, 96, 97, 98, 99, 100, 101, 102, 103, 104, 105, 106, 107, 108, 109, 110, 111, 112, 113, 114, 115, 116, 117, 118, 119, 120, 121, 122, 123, 124, 125, 126, 127, 128, 129, 130, 131, 132, 133, 134, 135, 136, 137, 138, 139, 140, 141, 142, 143, 144, 145, 146, 147, 148, 149, 150, 151, 152, 153, 154, 155, 156, 157, 158, 159, 160, 161, 162, 163, 164],
      "LargestImagePixelValue": [1801, 1740, 1723, 1709, 1725, 1716, 1701, 1694, 1697, 1713, 1712, 1718, 1711, 1708, 1696, 1724, 1724, 1715, 1712, 1713, 1709, 1700, 1714, 1713, 1714, 1698, 1702, 1699, 1703, 1690, 1704, 1704, 1716, 1698, 1691, 1690, 1701, 1727, 1723, 1696, 1704, 1696, 1704, 1706, 1699, 1706, 1718, 1717, 1701, 1721, 1691, 1702, 1694, 1710, 1716, 1710, 1713, 1715, 1695, 1689, 1688, 1692, 1703, 1717, 1695, 1707, 1690, 1717, 1717, 1722, 1703, 1722, 1720, 1731, 1709, 1709, 1686, 1715, 1683, 1699, 1715, 1717, 1711, 1717, 1724, 1716, 1720, 1719, 1715, 1726, 1726, 1729, 1707, 1717, 1713, 1728, 1706, 1707, 1727, 1747, 1745, 1717, 1703, 1741, 1719, 1751, 1729, 1733, 1702, 1707, 1716, 1711, 1712, 1733, 1705, 1715, 1714, 1706, 1713, 1717, 1743, 1710, 1701, 1696, 1710, 1711, 1726, 1714, 1714, 1727, 1728, 1730, 1717, 1721, 1719, 1722, 1719, 1718, 1777, 1729, 1702, 1724, 1768, 1754, 1777, 1738, 1719, 1733, 1743, 1766, 1764, 1737, 1717, 1740, 1749, 1733, 1730, 1731, 1730, 1720, 1711, 1717, 1728, 1725],
      "WindowCenter": [728.0, 725.0, 724.0, 724.0, 723.0, 723.0, 723.0, 722.0, 722.0, 723.0, 726.0, 726.0, 726.0, 725.0, 725.0, 725.0, 725.0, 725.0, 724.0, 724.0, 724.0, 724.0, 724.0, 724.0, 724.0, 724.0, 723.0, 723.0, 724.0, 724.0, 725.0, 725.0, 726.0, 724.0, 724.0, 724.0, 725.0, 726.0, 726.0, 725.0, 725.0, 725.0, 725.0, 725.0, 725.0, 725.0, 724.0, 724.0, 724.0, 724.0, 724.0, 724.0, 724.0, 724.0, 724.0, 724.0, 724.0, 724.0, 723.0, 723.0, 723.0, 724.0, 725.0, 724.0, 723.0, 723.0, 723.0, 725.0, 724.0, 724.0, 723.0, 723.0, 724.0, 724.0, 723.0, 722.0, 721.0, 722.0, 721.0, 722.0, 723.0, 722.0, 723.0, 724.0, 724.0, 723.0, 723.0, 723.0, 724.0, 725.0, 725.0, 723.0, 724.0, 724.0, 724.0, 724.0, 724.0, 724.0, 725.0, 725.0, 725.0, 725.0, 724.0, 725.0, 725.0, 724.0, 723.0, 723.0, 722.0, 723.0, 723.0, 723.0, 724.0, 724.0, 723.0, 722.0, 722.0, 723.0, 723.0, 723.0, 723.0, 723.0, 724.0, 725.0, 724.0, 724.0, 725.0, 724.0, 724.0, 723.0, 723.0, 724.0, 724.0, 724.0, 724.0, 724.0, 724.0, 723.0, 724.0, 725.0, 726.0, 726.0, 725.0, 725.0, 725.0, 725.0, 724.0, 724.0, 724.0, 725.0, 725.0, 725.0, 724.0, 725.0, 724.0, 723.0, 724.0, 725.0, 724.0, 723.0, 724.0, 724.0, 725.0, 724.0],
      "WindowWidth": [1582.0, 1573.0, 1571.0, 1569.0, 1566.0, 1567.0, 1566.0, 1564.0, 1565.0, 1567.0, 1576.0, 1574.0, 1574.0, 1572.0, 1572.0, 1572.0, 1572.0, 1573.0, 1571.0, 1571.0, 1570.0, 1570.0, 1570.0, 1570.0, 1571.0, 1569.0, 1568.0, 1567.0, 1570.0, 1571.0, 1573.0, 1574.0, 1574.0, 1571.0, 1570.0, 1570.0, 1572.0, 1575.0, 1575.0, 1574.0, 1572.0, 1572.0, 1571.0, 1573.0, 1573.0, 1571.0, 1571.0, 1569.0, 1570.0, 1569.0, 1570.0, 1569.0, 1569.0, 1569.0, 1569.0, 1570.0, 1571.0, 1570.0, 1568.0, 1567.0, 1567.0, 1572.0, 1572.0, 1570.0, 1568.0, 1567.0, 1568.0, 1572.0, 1571.0, 1570.0, 1567.0, 1567.0, 1570.0, 1570.0, 1566.0, 1564.0, 1562.0, 1564.0, 1562.0, 1565.0, 1567.0, 1565.0, 1566.0, 1569.0, 1570.0, 1568.0, 1567.0, 1567.0, 1571.0, 1574.0, 1572.0, 1568.0, 1570.0, 1571.0, 1569.0, 1569.0, 1568.0, 1570.0, 1574.0, 1574.0, 1573.0, 1572.0, 1571.0, 1574.0, 1572.0, 1570.0, 1566.0, 1566.0, 1566.0, 1566.0, 1567.0, 1566.0, 1569.0, 1571.0, 1567.0, 1565.0, 1564.0, 1568.0, 1568.0, 1568.0, 1567.0, 1567.0, 1569.0, 1571.0, 1569.0, 1569.0, 1572.0, 1570.0, 1569.0, 1568.0, 1568.0, 1569.0, 1571.0, 1571.0, 1570.0, 1570.0, 1569.0, 1566.0, 1570.0, 1574.0, 1575.0, 1575.0, 1572.0, 1572.0, 1573.0, 1572.0, 1571.0, 1569.0, 1571.0, 1573.0, 1572.0, 1572.0, 1571.0, 1571.0, 1569.0, 1566.0, 1568.0, 1572.0, 1570.0, 1568.0, 1569.0, 1571.0, 1572.0, 1571.0]
    },
    "slices": {}
  }
}