{
  "AcquisitionMatrixPE": 64,
  "AcquisitionNumber": 1,
  "AcquisitionTime": "10:40:25.672500",
  "BandwidthPerPixelPhaseEncode": 33.967,
  "BaseResolution": 64,
  "CoilCombinationMethod": "Sum of Squares",
  "CoilString": "C:HEA;HEP",
  "ConversionSoftware": "dcm2niix",
  "ConversionSoftwareVersion": "v1.0.20220720",
  "DerivedVendorReportedEchoSpacing": 0.000460005,
  "DeviceSerialNumber": "35193",
  "DwellTime": 3.1e-06,
  "EchoTime": 0.03,
  "EffectiveEchoSpacing": 0.000460005,
  "FlipAngle": 90,
  "HeudiconvVersion": "1.1.6",
  "ImageOrientationPatientDICOM": [0.999903, -0.0139622, 0, 0.0139622, 0.999903, 0],
  "ImageOrientationText": "Tra",
  "ImageType": [
    "ORIGINAL",
    "PRIMARY",
    "M",
    "ND",
    "MOSAIC"
],
  "ImagingFrequency": 123.254,
  "InPlanePhaseEncodingDirectionDICOM": "COL",
  "InstitutionAddress": "Xinjiekouwai Street No 19,Beijing,Haidian District,CN,100875",
  "InstitutionName": "Beijing Normal Universtiy/2773C4/",
  "InstitutionalDepartmentName": "Department",
  "MRAcquisitionType": "2D",
  "MagneticFieldStrength": 3,
  "Manufacturer": "Siemens",
  "ManufacturersModelName": "TrioTim",
  "MatrixCoilMode": "SENSE",
  "Modality": "MR",
  "NonlinearGradientCorrection": false,
  "PartialFourier": 1,
  "PatientPosition": "HFS",
  "PercentPhaseFOV": 100,
  "PercentSampling": 100,
  "PhaseEncodingDirection": "j-",
  "PhaseEncodingSteps": 64,
  "PhaseResolution": 1,
  "PixelBandwidth": 2520,
  "ProcedureStepDescription": "BNU_cst_2015^Guo.TaoMei",
  "ProtocolName": "ge_func_3x3x4_164",
  "PulseSequenceDetails": "%SiemensSeq%\\ep2d_bold",
  "ReceiveCoilName": "HeadMatrix",
  "ReconMatrixPE": 64,
  "RepetitionTime": 2,
  "SAR": 0.118766,
  "ScanOptions": "FS",
  "ScanningSequence": "EP",
  "SequenceName": "*epfid2d1_64",
  "SequenceVariant": "SK",
  "SeriesDescription": "ge_func_3x3x4_164",
  "SeriesNumber": 3,
  "ShimSetting": [-4499, -19384, -9827, 899, -177, -687, -307, -171],
  "SliceThickness": 4,
  "SliceTiming": [0, 1.035, 0.0625, 1.095, 0.1225, 1.1575, 0.1825, 1.2175, 0.245, 1.2775, 0.305, 1.34, 0.365, 1.4, 0.4275, 1.46, 0.4875, 1.5225, 0.5475, 1.5825, 0.61, 1.6425, 0.67, 1.705, 0.73, 1.765, 0.7925, 1.825, 0.8525, 1.8875, 0.9125, 1.9475, 0.975],
  "SoftwareVersions": "syngo MR B17",
  "SpacingBetweenSlices": 4.6,
  "StationName": "MRC35193",
  "TaskName": "LanguageControl",
  "TotalReadoutTime": 0.0289803,
  "TxRefAmp": 320.96,
  "dcmmeta_affine": [
    [-3.124695301055908, 0.043631989508867264, 0.0, 105.38465118408203],
    [0.043631989508867264, 3.124695301055908, 0.0, -89.49069213867188],
    [0.0, 0.0, 4.599999904632568, -60.10602569580078],
    [0.0, 0.0, 0.0, 1.0]
],
  "dcmmeta_reorient_transform": [
    [0.0, -1.0, 0.0, 63.0],
    [1.0, 0.0, 0.0, 0.0],
    [0.0, 0.0, 1.0, 0.0],
    [0.0, 0.0, 0.0, 1.0]
],
  "dcmmeta_shape": [64, 64, 33, 164],
  "dcmmeta_slice_dim": 2,
  "dcmmeta_version": 0.6,
  "global": {
    "const": {
      "AcquisitionMatrix": [64, 0, 0, 64],
      "AngioFlag": "N",
      "BitsAllocated": 16,
      "BitsStored": 12,
      "Columns": 384,
      "EchoNumbers": 1,
      "EchoTime": 30.0,
      "EchoTrainLength": 1,
      "FlipAngle": 90.0,
      "HighBit": 11,
      "ImageOrientationPatient": [0.99990252322622, -0.0139622364199, 0.0, 0.01396223641992, 0.99990252322622, 0.0],
      "ImagePositionPatient": [-615.06584360736, -600.33525686924, -60.106025695801],
      "ImageType": [
        "ORIGINAL",
        "PRIMARY",
        "M",
        "ND",
        "MOSAIC"
],
      "ImagedNucleus": "1H",
      "ImagingFrequency": 123.253636,
      "InPlanePhaseEncodingDirection": "COL",
      "MRAcquisitionType": "2D",
      "MagneticFieldStrength": 3.0,
      "Manufacturer": "SIEMENS",
      "ManufacturerModelName": "TrioTim",
      "Modality": "MR",
      "NumberOfAverages": 1.0,
      "NumberOfPhaseEncodingSteps": 64,
      "PercentPhaseFieldOfView": 100.0,
      "PercentSampling": 100.0,
      "PerformedProcedureStepStartTime": "102738.578000",
      "PhotometricInterpretation": "MONOCHROME2",
      "PixelBandwidth": 2520.0,
      "PixelRepresentation": 0,
      "PixelSpacing": [3.125, 3.125],
      "ProtocolName": "ge_func_3x3x4_164",
      "RepetitionTime": 2000.0,
      "Rows": 384,
      "SAR": 0.11876609301223,
      "SamplesPerPixel": 1,
      "ScanOptions": "FS",
      "ScanningSequence": "EP",
      "SequenceName": "*epfid2d1_64",
      "SequenceVariant": "SK",
      "SeriesDescription": "ge_func_3x3x4_164",
      "SeriesNumber": 3,
      "SeriesTime": "104109.296000",
      "SliceLocation": -60.106025695801,
      "SliceThickness": 4.0,
      "SmallestImagePixelValue": 0,
      "SoftwareVersions": "syngo MR B17",
      "SpacingBetweenSlices": 4.6000001430511,
      "SpecificCharacterSet": "ISO_IR 100",
      "StudyID": "1",
      "StudyTime": "102738.531000",
      "TransmitCoilName": "Body",
      "VariableFlipAngleFlag": "N",
      "WindowCenterWidthExplanation": "Algo1",
      "dBdt": 0.0},
    "slices": {}
  },
  "time": {
    "samples": {
      "AcquisitionNumber": [1, 2, 3, 4, 5, 6, 7, 8, 9, 10, 11, 12, 13, 14, 15, 16, 17, 18, 19, 20, 21, 22, 23, 24, 25, 26, 27, 28, 29, 30, 31, 32, 33, 34, 35, 36, 37, 38, 39, 40, 41, 42, 43, 44, 45, 46, 47, 48, 49, 50, 51, 52, 53, 54, 55, 56, 57, 58, 59, 60, 61, 62, 63, 64, 65, 66, 67, 68, 69, 70, 71, 72, 73, 74, 75, 76, 77, 78, 79, 80, 81, 82, 83, 84, 85, 86, 87, 88, 89, 90, 91, 92, 93, 94, 95, 96, 97, 98, 99, 100, 101, 102, 103, 104, 105, 106, 107, 108, 109, 110, 111, 112, 113, 114, 115, 116, 117, 118, 119, 120, 121, 122, 123, 124, 125, 126, 127, 128, 129, 130, 131, 132, 133, 134, 135, 136, 137, 138, 139, 140, 141, 142, 143, 144, 145, 146, 147, 148, 149, 150, 151, 152, 153, 154, 155, 156, 157, 158, 159, 160, 161, 162, 163, 164],
      "AcquisitionTime": ["104025.672500", "104027.680000", "104029.690000", "104031.697500", "104033.705000", "104035.712500", "104037.720000", "104039.730000", "104041.737500", "104043.745000", "104045.752500", "104047.762500", "104049.770000", "104051.777500", "104053.785000", "104055.792500", "104057.802500", "104059.810000", "104101.817500", "104103.825000", "104105.832500", "104107.842500", "104109.850000", "104111.857500", "104113.865000", "104115.875000", "104117.882500", "104119.890000", "104121.897500", "104123.905000", "104125.915000", "104127.922500", "104129.930000", "104131.937500", "104133.945000", "104135.955000", "104137.962500", "104139.970000", "104141.977500", "104143.985000", "104145.995000", "104148.002500", "104150.010000", "104152.017500", "104154.027500", "104156.035000", "104158.042500", "104200.050000", "104202.057500", "104204.067500", "104206.075000", "104208.082500", "104210.090000", "104212.097500", "104214.107500", "104216.115000", "104218.122500", "104220.130000", "104222.140000", "104224.147500", "104226.155000", "104228.162500", "104230.170000", "104232.180000", "104234.187500", "104236.195000", "104238.202500", "104240.210000", "104242.220000", "104244.227500", "104246.235000", "104248.242500", "104250.252500", "104252.260000", "104254.267500", "104256.275000", "104258.282500", "104300.292500", "104302.300000", "104304.307500", "104306.315000", "104308.322500", "104310.332500", "104312.340000", "104314.347500", "104316.355000", "104318.365000", "104320.372500", "104322.380000", "104324.387500", "104326.395000", "104328.405000", "104330.412500", "104332.420000", "104334.427500", "104336.435000", "104338.445000", "104340.452500", "104342.460000", "104344.467500", "104346.475000", "104348.485000", "104350.492500", "104352.500000", "104354.507500", "104356.517500", "104358.525000", "104400.532500", "104402.540000", "104404.547500", "104406.557500", "104408.565000", "104410.572500", "104412.580000", "104414.587500", "104416.597500", "104418.605000", "104420.612500", "104422.620000", "104424.630000", "104426.637500", "104428.645000", "104430.652500", "104432.660000", "104434.670000", "104436.677500", "104438.685000", "104440.692500", "104442.700000", "104444.710000", "104446.717500", "104448.725000", "104450.732500", "104452.742500", "104454.750000", "104456.757500", "104458.765000", "104500.772500", "104502.782500", "104504.790000", "104506.797500", "104508.805000", "104510.812500", "104512.822500", "104514.830000", "104516.837500", "104518.845000", "104520.852500", "104522.862500", "104524.870000", "104526.877500", "104528.885000", "104530.895000", "104532.902500", "104534.910000", "104536.917500", "104538.925000", "104540.935000", "104542.942500", "104544.950000", "104546.957500", "104548.965000", "104550.975000", "104552.982500"],
      "ContentTime": ["104109.312000", "104109.312000", "104109.312000", "104109.312000", "104109.312000", "104109.328000", "104109.328000", "104109.328000", "104109.328000", "104109.328000", "104109.343000", "104109.343000", "104109.343000", "104109.343000", "104109.343000", "104109.343000", "104109.343000", "104109.343000", "104109.343000", "104109.359000", "104109.359000", "104149.296000", "104149.312000", "104149.312000", "104149.312000", "104149.312000", "104149.312000", "104149.312000", "104149.328000", "104149.328000", "104149.328000", "104149.328000", "104149.328000", "104149.328000", "104149.328000", "104149.328000", "104149.328000", "104149.343000", "104149.343000", "104149.343000", "104149.343000", "104229.296000", "104229.296000", "104229.312000", "104229.312000", "104229.312000", "104229.312000", "104229.312000", "104229.312000", "104229.312000", "104229.328000", "104229.328000", "104229.328000", "104229.328000", "104229.328000", "104229.343000", "104229.343000", "104229.343000", "104229.343000", "104229.343000", "104229.343000", "104309.296000", "104309.312000", "104309.312000", "104309.312000", "104309.312000", "104309.312000", "104309.312000", "104309.328000", "104309.328000", "104309.328000", "104309.328000", "104309.343000", "104309.343000", "104309.343000", "104309.343000", "104309.359000", "104309.359000", "104309.359000", "104309.359000", "104309.359000", "104349.296000", "104349.296000", "104349.312000", "104349.312000", "104349.328000", "104349.328000", "104349.328000", "104349.328000", "104349.343000", "104349.343000", "104349.343000", "104349.343000", "104349.343000", "104349.343000", "104349.343000", "104349.343000", "104349.359000", "104349.359000", "104349.359000", "104349.359000", "104429.296000", "104429.296000", "104429.312000", "104429.312000", "104429.312000", "104429.312000", "104429.312000", "104429.312000", "104429.312000", "104429.312000", "104429.328000", "104429.328000", "104429.328000", "104429.328000", "104429.328000", "104429.328000", "104429.328000", "104429.328000", "104429.343000", "104429.343000", "104509.296000", "104509.296000", "104509.312000", "104509.312000", "104509.312000", "104509.312000", "104509.312000", "104509.312000", "104509.312000", "104509.312000", "104509.328000", "104509.328000", "104509.328000", "104509.328000", "104509.328000", "104509.328000", "104509.328000", "104509.328000", "104509.343000", "104509.343000", "104549.296000", "104549.296000", "104549.312000", "104549.312000", "104549.312000", "104549.312000", "104549.312000", "104549.312000", "104549.312000", "104549.312000", "104549.328000", "104549.328000", "104549.328000", "104549.328000", "104549.328000", "104549.328000", "104549.328000", "104549.328000", "104549.343000", "104549.343000", "104554.359000", "104554.375000", "104554.375000"],
      "InstanceCreationTime": ["104109.312000", "104109.312000", "104109.312000", "104109.312000", "104109.312000", "104109.328000", "104109.328000", "104109.328000", "104109.328000", "104109.328000", "104109.343000", "104109.343000", "104109.343000", "104109.343000", "104109.343000", "104109.343000", "104109.343000", "104109.343000", "104109.343000", "104109.359000", "104109.359000", "104149.296000", "104149.312000", "104149.312000", "104149.312000", "104149.312000", "104149.312000", "104149.312000", "104149.328000", "104149.328000", "104149.328000", "104149.328000", "104149.328000", "104149.328000", "104149.328000", "104149.328000", "104149.328000", "104149.343000", "104149.343000", "104149.343000", "104149.343000", "104229.296000", "104229.296000", "104229.312000", "104229.312000", "104229.312000", "104229.312000", "104229.312000", "104229.312000", "104229.312000", "104229.328000", "104229.328000", "104229.328000", "104229.328000", "104229.328000", "104229.343000", "104229.343000", "104229.343000", "104229.343000", "104229.343000", "104229.343000", "104309.296000", "104309.312000", "104309.312000", "104309.312000", "104309.312000", "104309.312000", "104309.312000", "104309.328000", "104309.328000", "104309.328000", "104309.328000", "104309.343000", "104309.343000", "104309.343000", "104309.343000", "104309.359000", "104309.359000", "104309.359000", "104309.359000", "104309.359000", "104349.296000", "104349.296000", "104349.312000", "104349.312000", "104349.328000", "104349.328000", "104349.328000", "104349.328000", "104349.343000", "104349.343000", "104349.343000", "104349.343000", "104349.343000", "104349.343000", "104349.343000", "104349.343000", "104349.359000", "104349.359000", "104349.359000", "104349.359000", "104429.296000", "104429.296000", "104429.312000", "104429.312000", "104429.312000", "104429.312000", "104429.312000", "104429.312000", "104429.312000", "104429.312000", "104429.328000", "104429.328000", "104429.328000", "104429.328000", "104429.328000", "104429.328000", "104429.328000", "104429.328000", "104429.343000", "104429.343000", "104509.296000", "104509.296000", "104509.312000", "104509.312000", "104509.312000", "104509.312000", "104509.312000", "104509.312000", "104509.312000", "104509.312000", "104509.328000", "104509.328000", "104509.328000", "104509.328000", "104509.328000", "104509.328000", "104509.328000", "104509.328000", "104509.343000", "104509.343000", "104549.296000", "104549.296000", "104549.312000", "104549.312000", "104549.312000", "104549.312000", "104549.312000", "104549.312000", "104549.312000", "104549.312000", "104549.328000", "104549.328000", "104549.328000", "104549.328000", "104549.328000", "104549.328000", "104549.328000", "104549.328000", "104549.343000", "104549.343000", "104554.359000", "104554.375000", "104554.375000"],
      "InstanceNumber": [1, 2, 3, 4, 5, 6, 7, 8, 9, 10, 11, 12, 13, 14, 15, 16, 17, 18, 19, 20, 21, 22, 23, 24, 25, 26, 27, 28, 29, 30, 31, 32, 33, 34, 35, 36, 37, 38, 39, 40, 41, 42, 43, 44, 45, 46, 47, 48, 49, 50, 51, 52, 53, 54, 55, 56, 57, 58, 59, 60, 61, 62, 63, 64, 65, 66, 67, 68, 69, 70, 71, 72, 73, 74, 75, 76, 77, 78, 79, 80, 81, 82, 83, 84, 85, 86, 87, 88, 89, 90, 91, 92, 93, 94, 95, 96, 97, 98, 99, 100, 101, 102, 103, 104, 105, 106, 107, 108, 109, 110, 111, 112, 113, 114, 115, 116, 117, 118, 119, 120, 121, 122, 123, 124, 125, 126, 127, 128, 129, 130, 131, 132, 133, 134, 135, 136, 137, 138, 139, 140, 141, 142, 143, 144, 145, 146, 147, 148, 149, 150, 151, 152, 153, 154, 155, 156, 157, 158, 159, 160, 161, 162, 163, 164],
      "LargestImagePixelValue": [2253, 2167, 2187, 2170, 2167, 2150, 2130, 2127, 2138, 2133, 2148, 2123, 2127, 2155, 2137, 2135, 2147, 2136, 2154, 2140, 2133, 2128, 2113, 2130, 2126, 2134, 2115, 2137, 2152, 2124, 2133, 2100, 2120, 2109, 2101, 2126, 2132, 2126, 2115, 2133, 2112, 2132, 2121, 2123, 2126, 2109, 2098, 2122, 2131, 2117, 2141, 2138, 2110, 2109, 2117, 2136, 2123, 2124, 2140, 2127, 2118, 2115, 2125, 2095, 2119, 2118, 2135, 2108, 2107, 2146, 2145, 2128, 2149, 2128, 2130, 2142, 2124, 2094, 2122, 2113, 2106, 2114, 2135, 2153, 2114, 2107, 2141, 2128, 2131, 2153, 2148, 2135, 2141, 2124, 2153, 2120, 2131, 2152, 2117, 2109, 2110, 2137, 2121, 2127, 2164, 2153, 2162, 2149, 2144, 2107, 2100, 2114, 2101, 2092, 2096, 2127, 2094, 2086, 2089, 2091, 2092, 2077, 2105, 2069, 2081, 2089, 2095, 2094, 2094, 2106, 2089, 2108, 2101, 2081, 2095, 2106, 2096, 2097, 2082, 2088, 2102, 2092, 2089, 2088, 2106, 2106, 2098, 2131, 2101, 2114, 2120, 2123, 2107, 2116, 2122, 2135, 2121, 2113, 2105, 2158, 2116, 2111, 2109, 2131],
      "WindowCenter": [773.0, 771.0, 773.0, 772.0, 769.0, 768.0, 767.0, 767.0, 767.0, 767.0, 768.0, 768.0, 768.0, 768.0, 768.0, 769.0, 771.0, 772.0, 771.0, 770.0, 770.0, 771.0, 772.0, 772.0, 772.0, 772.0, 771.0, 772.0, 773.0, 773.0, 772.0, 772.0, 772.0, 771.0, 770.0, 771.0, 773.0, 773.0, 771.0, 771.0, 772.0, 772.0, 771.0, 772.0, 772.0, 771.0, 770.0, 771.0, 771.0, 771.0, 772.0, 773.0, 773.0, 772.0, 770.0, 771.0, 771.0, 771.0, 771.0, 771.0, 770.0, 771.0, 771.0, 771.0, 770.0, 770.0, 771.0, 771.0, 771.0, 770.0, 770.0, 770.0, 771.0, 771.0, 770.0, 769.0, 771.0, 770.0, 771.0, 771.0, 771.0, 771.0, 770.0, 771.0, 771.0, 771.0, 770.0, 770.0, 771.0, 772.0, 772.0, 771.0, 770.0, 770.0, 771.0, 771.0, 771.0, 772.0, 772.0, 771.0, 770.0, 769.0, 769.0, 771.0, 771.0, 770.0, 769.0, 769.0, 771.0, 771.0, 769.0, 770.0, 771.0, 771.0, 770.0, 770.0, 771.0, 771.0, 770.0, 770.0, 770.0, 771.0, 771.0, 771.0, 771.0, 771.0, 771.0, 771.0, 771.0, 771.0, 771.0, 771.0, 771.0, 771.0, 771.0, 772.0, 770.0, 771.0, 770.0, 771.0, 772.0, 771.0, 771.0, 770.0, 770.0, 770.0, 770.0, 772.0, 772.0, 771.0, 770.0, 770.0, 770.0, 771.0, 771.0, 770.0, 770.0, 770.0, 771.0, 770.0, 771.0, 770.0, 769.0, 770.0],
      "WindowWidth": [1698.0, 1692.0, 1699.0, 1695.0, 1687.0, 1682.0, 1680.0, 1679.0, 1679.0, 1681.0, 1681.0, 1682.0, 1683.0, 1681.0, 1681.0, 1686.0, 1692.0, 1693.0, 1691.0, 1690.0, 1690.0, 1691.0, 1693.0, 1695.0, 1695.0, 1694.0, 1691.0, 1693.0, 1696.0, 1697.0, 1694.0, 1694.0, 1693.0, 1692.0, 1688.0, 1692.0, 1697.0, 1696.0, 1692.0, 1692.0, 1693.0, 1693.0, 1692.0, 1693.0, 1693.0, 1692.0, 1689.0, 1690.0, 1692.0, 1693.0, 1693.0, 1696.0, 1697.0, 1693.0, 1689.0, 1691.0, 1692.0, 1692.0, 1691.0, 1690.0, 1690.0, 1691.0, 1692.0, 1691.0, 1688.0, 1688.0, 1690.0, 1692.0, 1691.0, 1689.0, 1688.0, 1688.0, 1690.0, 1690.0, 1689.0, 1687.0, 1691.0, 1689.0, 1691.0, 1692.0, 1692.0, 1691.0, 1688.0, 1691.0, 1692.0, 1691.0, 1689.0, 1687.0, 1690.0, 1695.0, 1694.0, 1690.0, 1689.0, 1687.0, 1690.0, 1691.0, 1690.0, 1693.0, 1695.0, 1692.0, 1687.0, 1686.0, 1686.0, 1691.0, 1692.0, 1687.0, 1684.0, 1686.0, 1690.0, 1689.0, 1685.0, 1687.0, 1691.0, 1690.0, 1689.0, 1686.0, 1689.0, 1690.0, 1689.0, 1689.0, 1689.0, 1690.0, 1691.0, 1689.0, 1690.0, 1692.0, 1691.0, 1690.0, 1691.0, 1692.0, 1691.0, 1691.0, 1692.0, 1691.0, 1692.0, 1693.0, 1689.0, 1690.0, 1687.0, 1690.0, 1693.0, 1692.0, 1690.0, 1686.0, 1688.0, 1686.0, 1689.0, 1693.0, 1693.0, 1691.0, 1687.0, 1688.0, 1688.0, 1691.0, 1691.0, 1688.0, 1687.0, 1689.0, 1691.0, 1688.0, 1689.0, 1689.0, 1686.0, 1688.0]
    },
    "slices": {}
  }
}