{
  "AcquisitionMatrixPE": 64,
  "AcquisitionNumber": 1,
  "AcquisitionTime": "10:46:55.830000",
  "BandwidthPerPixelPhaseEncode": 33.967,
  "BaseResolution": 64,
  "CoilCombinationMethod": "Sum of Squares",
  "CoilString": "C:HEA;HEP",
  "ConversionSoftware": "dcm2niix",
  "ConversionSoftwareVersion": "v1.0.20220720",
  "DerivedVendorReportedEchoSpacing": 0.000460005,
  "DeviceSerialNumber": "35193",
  "DwellTime": 3.1e-06,
  "EchoTime": 0.03,
  "EffectiveEchoSpacing": 0.000460005,
  "FlipAngle": 90,
  "HeudiconvVersion": "1.1.6",
  "ImageOrientationPatientDICOM": [0.999903, -0.0139622, 0, 0.0139622, 0.999903, 0],
  "ImageOrientationText": "Tra",
  "ImageType": [
    "ORIGINAL",
    "PRIMARY",
    "M",
    "ND",
    "MOSAIC"
],
  "ImagingFrequency": 123.254,
  "InPlanePhaseEncodingDirectionDICOM": "COL",
  "InstitutionAddress": "Xinjiekouwai Street No 19,Beijing,Haidian District,CN,100875",
  "InstitutionName": "Beijing Normal Universtiy/2773C4/",
  "InstitutionalDepartmentName": "Department",
  "MRAcquisitionType": "2D",
  "MagneticFieldStrength": 3,
  "Manufacturer": "Siemens",
  "ManufacturersModelName": "TrioTim",
  "MatrixCoilMode": "SENSE",
  "Modality": "MR",
  "NonlinearGradientCorrection": false,
  "PartialFourier": 1,
  "PatientPosition": "HFS",
  "PercentPhaseFOV": 100,
  "PercentSampling": 100,
  "PhaseEncodingDirection": "j-",
  "PhaseEncodingSteps": 64,
  "PhaseResolution": 1,
  "PixelBandwidth": 2520,
  "ProcedureStepDescription": "BNU_cst_2015^Guo.TaoMei",
  "ProtocolName": "ge_func_3x3x4_164",
  "PulseSequenceDetails": "%SiemensSeq%\\ep2d_bold",
  "ReceiveCoilName": "HeadMatrix",
  "ReconMatrixPE": 64,
  "RepetitionTime": 2,
  "SAR": 0.118766,
  "ScanOptions": "FS",
  "ScanningSequence": "EP",
  "SequenceName": "*epfid2d1_64",
  "SequenceVariant": "SK",
  "SeriesDescription": "ge_func_3x3x4_164",
  "SeriesNumber": 4,
  "ShimSetting": [-4499, -19384, -9827, 899, -177, -687, -307, -171],
  "SliceThickness": 4,
  "SliceTiming": [0, 1.035, 0.06, 1.095, 0.1225, 1.155, 0.1825, 1.2175, 0.2425, 1.2775, 0.305, 1.3375, 0.365, 1.4, 0.425, 1.46, 0.4875, 1.52, 0.5475, 1.5825, 0.6075, 1.6425, 0.67, 1.7025, 0.73, 1.765, 0.79, 1.825, 0.8525, 1.885, 0.9125, 1.9475, 0.9725],
  "SoftwareVersions": "syngo MR B17",
  "SpacingBetweenSlices": 4.6,
  "StationName": "MRC35193",
  "TaskName": "LanguageControl",
  "TotalReadoutTime": 0.0289803,
  "TxRefAmp": 320.96,
  "dcmmeta_affine": [
    [-3.124695301055908, 0.043631989508867264, 0.0, 105.38465118408203],
    [0.043631989508867264, 3.124695301055908, 0.0, -89.49069213867188],
    [0.0, 0.0, 4.599999904632568, -60.10602569580078],
    [0.0, 0.0, 0.0, 1.0]
],
  "dcmmeta_reorient_transform": [
    [0.0, -1.0, 0.0, 63.0],
    [1.0, 0.0, 0.0, 0.0],
    [0.0, 0.0, 1.0, 0.0],
    [0.0, 0.0, 0.0, 1.0]
],
  "dcmmeta_shape": [64, 64, 33, 164],
  "dcmmeta_slice_dim": 2,
  "dcmmeta_version": 0.6,
  "global": {
    "const": {
      "AcquisitionMatrix": [64, 0, 0, 64],
      "AngioFlag": "N",
      "BitsAllocated": 16,
      "BitsStored": 12,
      "Columns": 384,
      "EchoNumbers": 1,
      "EchoTime": 30.0,
      "EchoTrainLength": 1,
      "FlipAngle": 90.0,
      "HighBit": 11,
      "ImageOrientationPatient": [0.99990252322622, -0.0139622364199, 0.0, 0.01396223641992, 0.99990252322622, 0.0],
      "ImagePositionPatient": [-615.06584360736, -600.33525686924, -60.106025695801],
      "ImageType": [
        "ORIGINAL",
        "PRIMARY",
        "M",
        "ND",
        "MOSAIC"
],
      "ImagedNucleus": "1H",
      "ImagingFrequency": 123.25364,
      "InPlanePhaseEncodingDirection": "COL",
      "MRAcquisitionType": "2D",
      "MagneticFieldStrength": 3.0,
      "Manufacturer": "SIEMENS",
      "ManufacturerModelName": "TrioTim",
      "Modality": "MR",
      "NumberOfAverages": 1.0,
      "NumberOfPhaseEncodingSteps": 64,
      "PercentPhaseFieldOfView": 100.0,
      "PercentSampling": 100.0,
      "PerformedProcedureStepStartTime": "102738.578000",
      "PhotometricInterpretation": "MONOCHROME2",
      "PixelBandwidth": 2520.0,
      "PixelRepresentation": 0,
      "PixelSpacing": [3.125, 3.125],
      "ProtocolName": "ge_func_3x3x4_164",
      "RepetitionTime": 2000.0,
      "Rows": 384,
      "SAR": 0.11876609301223,
      "SamplesPerPixel": 1,
      "ScanOptions": "FS",
      "ScanningSequence": "EP",
      "SequenceName": "*epfid2d1_64",
      "SequenceVariant": "SK",
      "SeriesDescription": "ge_func_3x3x4_164",
      "SeriesNumber": 4,
      "SeriesTime": "104750.703000",
      "SliceLocation": -60.106025695801,
      "SliceThickness": 4.0,
      "SmallestImagePixelValue": 0,
      "SoftwareVersions": "syngo MR B17",
      "SpacingBetweenSlices": 4.6000001430511,
      "SpecificCharacterSet": "ISO_IR 100",
      "StudyID": "1",
      "StudyTime": "102738.531000",
      "TransmitCoilName": "Body",
      "VariableFlipAngleFlag": "N",
      "WindowCenterWidthExplanation": "Algo1",
      "dBdt": 0.0},
    "slices": {}
  },
  "time": {
    "samples": {
      "AcquisitionNumber": [1, 2, 3, 4, 5, 6, 7, 8, 9, 10, 11, 12, 13, 14, 15, 16, 17, 18, 19, 20, 21, 22, 23, 24, 25, 26, 27, 28, 29, 30, 31, 32, 33, 34, 35, 36, 37, 38, 39, 40, 41, 42, 43, 44, 45, 46, 47, 48, 49, 50, 51, 52, 53, 54, 55, 56, 57, 58, 59, 60, 61, 62, 63, 64, 65, 66, 67, 68, 69, 70, 71, 72, 73, 74, 75, 76, 77, 78, 79, 80, 81, 82, 83, 84, 85, 86, 87, 88, 89, 90, 91, 92, 93, 94, 95, 96, 97, 98, 99, 100, 101, 102, 103, 104, 105, 106, 107, 108, 109, 110, 111, 112, 113, 114, 115, 116, 117, 118, 119, 120, 121, 122, 123, 124, 125, 126, 127, 128, 129, 130, 131, 132, 133, 134, 135, 136, 137, 138, 139, 140, 141, 142, 143, 144, 145, 146, 147, 148, 149, 150, 151, 152, 153, 154, 155, 156, 157, 158, 159, 160, 161, 162, 163, 164],
      "AcquisitionTime": ["104655.830000", "104657.837500", "104659.845000", "104701.855000", "104703.862500", "104705.870000", "104707.877500", "104709.885000", "104711.895000", "104713.902500", "104715.910000", "104717.917500", "104719.925000", "104721.935000", "104723.942500", "104725.950000", "104727.957500", "104729.967500", "104731.975000", "104733.982500", "104735.990000", "104737.997500", "104740.007500", "104742.015000", "104744.022500", "104746.030000", "104748.037500", "104750.047500", "104752.055000", "104754.062500", "104756.070000", "104758.077500", "104800.087500", "104802.095000", "104804.102500", "104806.110000", "104808.120000", "104810.127500", "104812.135000", "104814.142500", "104816.150000", "104818.160000", "104820.167500", "104822.175000", "104824.182500", "104826.190000", "104828.200000", "104830.207500", "104832.215000", "104834.222500", "104836.232500", "104838.240000", "104840.247500", "104842.255000", "104844.262500", "104846.272500", "104848.280000", "104850.287500", "104852.295000", "104854.302500", "104856.312500", "104858.320000", "104900.327500", "104902.335000", "104904.345000", "104906.352500", "104908.360000", "104910.367500", "104912.375000", "104914.385000", "104916.392500", "104918.400000", "104920.407500", "104922.415000", "104924.425000", "104926.432500", "104928.440000", "104930.447500", "104932.455000", "104934.465000", "104936.472500", "104938.480000", "104940.487500", "104942.497500", "104944.505000", "104946.512500", "104948.520000", "104950.527500", "104952.537500", "104954.545000", "104956.552500", "104958.560000", "105000.567500", "105002.577500", "105004.585000", "105006.592500", "105008.600000", "105010.610000", "105012.617500", "105014.625000", "105016.632500", "105018.640000", "105020.650000", "105022.657500", "105024.665000", "105026.672500", "105028.680000", "105030.690000", "105032.697500", "105034.705000", "105036.712500", "105038.722500", "105040.730000", "105042.737500", "105044.745000", "105046.752500", "105048.762500", "105050.770000", "105052.777500", "105054.785000", "105056.792500", "105058.802500", "105100.810000", "105102.817500", "105104.825000", "105106.832500", "105108.842500", "105110.850000", "105112.857500", "105114.865000", "105116.875000", "105118.882500", "105120.890000", "105122.897500", "105124.905000", "105126.915000", "105128.922500", "105130.930000", "105132.937500", "105134.945000", "105136.955000", "105138.962500", "105140.970000", "105142.977500", "105144.987500", "105146.995000", "105149.002500", "105151.010000", "105153.017500", "105155.027500", "105157.035000", "105159.042500", "105201.050000", "105203.057500", "105205.067500", "105207.075000", "105209.082500", "105211.090000", "105213.100000", "105215.107500", "105217.115000", "105219.122500", "105221.130000", "105223.140000"],
      "ContentTime": ["104750.718000", "104750.718000", "104750.718000", "104750.718000", "104750.718000", "104750.718000", "104750.734000", "104750.734000", "104750.734000", "104750.734000", "104750.734000", "104750.734000", "104750.750000", "104750.750000", "104750.750000", "104750.750000", "104750.765000", "104750.765000", "104750.765000", "104750.765000", "104750.765000", "104750.765000", "104750.781000", "104750.781000", "104750.781000", "104750.781000", "104750.781000", "104830.703000", "104830.703000", "104830.718000", "104830.718000", "104830.718000", "104830.718000", "104830.718000", "104830.718000", "104830.718000", "104830.734000", "104830.734000", "104830.734000", "104830.734000", "104830.734000", "104830.734000", "104830.750000", "104830.750000", "104830.750000", "104830.750000", "104830.750000", "104910.703000", "104910.703000", "104910.718000", "104910.718000", "104910.718000", "104910.718000", "104910.718000", "104910.734000", "104910.734000", "104910.734000", "104910.734000", "104910.750000", "104910.750000", "104910.750000", "104910.750000", "104910.750000", "104910.750000", "104910.750000", "104910.750000", "104910.765000", "104950.703000", "104950.703000", "104950.718000", "104950.718000", "104950.718000", "104950.718000", "104950.718000", "104950.734000", "104950.734000", "104950.734000", "104950.734000", "104950.734000", "104950.734000", "104950.734000", "104950.734000", "104950.750000", "104950.750000", "104950.750000", "104950.750000", "104950.750000", "105030.703000", "105030.703000", "105030.718000", "105030.718000", "105030.718000", "105030.718000", "105030.734000", "105030.734000", "105030.734000", "105030.734000", "105030.734000", "105030.750000", "105030.750000", "105030.750000", "105030.750000", "105030.750000", "105030.750000", "105030.750000", "105030.765000", "105030.765000", "105110.703000", "105110.703000", "105110.718000", "105110.718000", "105110.718000", "105110.718000", "105110.718000", "105110.734000", "105110.734000", "105110.734000", "105110.734000", "105110.734000", "105110.734000", "105110.734000", "105110.750000", "105110.750000", "105110.750000", "105110.750000", "105110.750000", "105110.750000", "105150.703000", "105150.718000", "105150.718000", "105150.718000", "105150.718000", "105150.734000", "105150.734000", "105150.734000", "105150.734000", "105150.734000", "105150.734000", "105150.734000", "105150.734000", "105150.750000", "105150.750000", "105150.750000", "105150.750000", "105150.765000", "105150.765000", "105150.765000", "105224.390000", "105224.390000", "105224.390000", "105224.390000", "105224.390000", "105224.406000", "105224.406000", "105224.406000", "105224.406000", "105224.421000", "105224.421000", "105224.421000", "105224.421000", "105224.421000", "105224.421000", "105224.421000", "105224.437000"],
      "InstanceCreationTime": ["104750.718000", "104750.718000", "104750.718000", "104750.718000", "104750.718000", "104750.718000", "104750.734000", "104750.734000", "104750.734000", "104750.734000", "104750.734000", "104750.734000", "104750.750000", "104750.750000", "104750.750000", "104750.750000", "104750.765000", "104750.765000", "104750.765000", "104750.765000", "104750.765000", "104750.765000", "104750.781000", "104750.781000", "104750.781000", "104750.781000", "104750.781000", "104830.703000", "104830.703000", "104830.718000", "104830.718000", "104830.718000", "104830.718000", "104830.718000", "104830.718000", "104830.718000", "104830.734000", "104830.734000", "104830.734000", "104830.734000", "104830.734000", "104830.734000", "104830.750000", "104830.750000", "104830.750000", "104830.750000", "104830.750000", "104910.703000", "104910.703000", "104910.718000", "104910.718000", "104910.718000", "104910.718000", "104910.718000", "104910.734000", "104910.734000", "104910.734000", "104910.734000", "104910.750000", "104910.750000", "104910.750000", "104910.750000", "104910.750000", "104910.750000", "104910.750000", "104910.750000", "104910.765000", "104950.703000", "104950.703000", "104950.718000", "104950.718000", "104950.718000", "104950.718000", "104950.718000", "104950.734000", "104950.734000", "104950.734000", "104950.734000", "104950.734000", "104950.734000", "104950.734000", "104950.734000", "104950.750000", "104950.750000", "104950.750000", "104950.750000", "104950.750000", "105030.703000", "105030.703000", "105030.718000", "105030.718000", "105030.718000", "105030.718000", "105030.734000", "105030.734000", "105030.734000", "105030.734000", "105030.734000", "105030.750000", "105030.750000", "105030.750000", "105030.750000", "105030.750000", "105030.750000", "105030.750000", "105030.765000", "105030.765000", "105110.703000", "105110.703000", "105110.718000", "105110.718000", "105110.718000", "105110.718000", "105110.718000", "105110.734000", "105110.734000", "105110.734000", "105110.734000", "105110.734000", "105110.734000", "105110.734000", "105110.750000", "105110.750000", "105110.750000", "105110.750000", "105110.750000", "105110.750000", "105150.703000", "105150.718000", "105150.718000", "105150.718000", "105150.718000", "105150.734000", "105150.734000", "105150.734000", "105150.734000", "105150.734000", "105150.734000", "105150.734000", "105150.734000", "105150.750000", "105150.750000", "105150.750000", "105150.750000", "105150.765000", "105150.765000", "105150.765000", "105224.390000", "105224.390000", "105224.390000", "105224.390000", "105224.390000", "105224.406000", "105224.406000", "105224.406000", "105224.406000", "105224.421000", "105224.421000", "105224.421000", "105224.421000", "105224.421000", "105224.421000", "105224.421000", "105224.437000"],
      "InstanceNumber": [1, 2, 3, 4, 5, 6, 7, 8, 9, 10, 11, 12, 13, 14, 15, 16, 17, 18, 19, 20, 21, 22, 23, 24, 25, 26, 27, 28, 29, 30, 31, 32, 33, 34, 35, 36, 37, 38, 39, 40, 41, 42, 43, 44, 45, 46, 47, 48, 49, 50, 51, 52, 53, 54, 55, 56, 57, 58, 59, 60, 61, 62, 63, 64, 65, 66, 67, 68, 69, 70, 71, 72, 73, 74, 75, 76, 77, 78, 79, 80, 81, 82, 83, 84, 85, 86, 87, 88, 89, 90, 91, 92, 93, 94, 95, 96, 97, 98, 99, 100, 101, 102, 103, 104, 105, 106, 107, 108, 109, 110, 111, 112, 113, 114, 115, 116, 117, 118, 119, 120, 121, 122, 123, 124, 125, 126, 127, 128, 129, 130, 131, 132, 133, 134, 135, 136, 137, 138, 139, 140, 141, 142, 143, 144, 145, 146, 147, 148, 149, 150, 151, 152, 153, 154, 155, 156, 157, 158, 159, 160, 161, 162, 163, 164],
      "LargestImagePixelValue": [2259, 2169, 2161, 2114, 2112, 2103, 2103, 2129, 2133, 2121, 2125, 2122, 2130, 2144, 2131, 2110, 2100, 2114, 2116, 2138, 2149, 2138, 2141, 2140, 2149, 2136, 2114, 2158, 2145, 2123, 2150, 2144, 2111, 2138, 2141, 2106, 2155, 2127, 2110, 2110, 2111, 2105, 2135, 2112, 2107, 2105, 2119, 2143, 2101, 2095, 2084, 2118, 2135, 2120, 2090, 2114, 2125, 2110, 2130, 2125, 2100, 2087, 2078, 2081, 2093, 2084, 2111, 2126, 2103, 2163, 2121, 2129, 2108, 2109, 2112, 2122, 2126, 2115, 2094, 2160, 2112, 2107, 2089, 2087, 2109, 2133, 2113, 2111, 2112, 2221, 2163, 2145, 2142, 2144, 2190, 2165, 2156, 2147, 2147, 2143, 2156, 2151, 2171, 2180, 2173, 2162, 2146, 2176, 2154, 2145, 2155, 2159, 2135, 2161, 2153, 2153, 2167, 2150, 2151, 2173, 2144, 2162, 2166, 2157, 2162, 2182, 2181, 2177, 2164, 2173, 2159, 2185, 2157, 2172, 2159, 2162, 2160, 2161, 2233, 2160, 2167, 2164, 2190, 2159, 2172, 2157, 2153, 2162, 2144, 2158, 2149, 2176, 2134, 2138, 2173, 2153, 2164, 2144, 2184, 2164, 2166, 2178, 2165, 2148],
      "WindowCenter": [775.0, 772.0, 771.0, 770.0, 770.0, 769.0, 768.0, 770.0, 770.0, 770.0, 769.0, 768.0, 769.0, 769.0, 771.0, 771.0, 771.0, 770.0, 769.0, 769.0, 771.0, 771.0, 770.0, 770.0, 770.0, 771.0, 771.0, 771.0, 771.0, 770.0, 771.0, 770.0, 770.0, 771.0, 772.0, 771.0, 771.0, 770.0, 770.0, 771.0, 771.0, 771.0, 771.0, 770.0, 771.0, 770.0, 772.0, 773.0, 771.0, 770.0, 771.0, 771.0, 772.0, 771.0, 770.0, 770.0, 770.0, 771.0, 771.0, 770.0, 770.0, 770.0, 770.0, 769.0, 769.0, 769.0, 770.0, 770.0, 769.0, 769.0, 768.0, 769.0, 771.0, 771.0, 770.0, 769.0, 769.0, 770.0, 771.0, 772.0, 770.0, 770.0, 769.0, 770.0, 771.0, 771.0, 770.0, 771.0, 771.0, 771.0, 772.0, 771.0, 771.0, 770.0, 770.0, 769.0, 771.0, 772.0, 771.0, 771.0, 771.0, 770.0, 771.0, 771.0, 770.0, 769.0, 770.0, 771.0, 771.0, 770.0, 770.0, 770.0, 770.0, 771.0, 771.0, 770.0, 771.0, 771.0, 770.0, 769.0, 770.0, 772.0, 772.0, 771.0, 770.0, 770.0, 771.0, 771.0, 771.0, 770.0, 770.0, 770.0, 771.0, 771.0, 771.0, 770.0, 770.0, 771.0, 772.0, 771.0, 769.0, 769.0, 770.0, 770.0, 771.0, 771.0, 772.0, 772.0, 772.0, 771.0, 771.0, 772.0, 772.0, 772.0, 772.0, 772.0, 772.0, 771.0, 771.0, 771.0, 770.0, 771.0, 771.0, 771.0],
      "WindowWidth": [1703.0, 1693.0, 1691.0, 1689.0, 1686.0, 1684.0, 1682.0, 1687.0, 1689.0, 1686.0, 1685.0, 1683.0, 1684.0, 1684.0, 1691.0, 1691.0, 1690.0, 1687.0, 1686.0, 1686.0, 1690.0, 1691.0, 1689.0, 1688.0, 1689.0, 1692.0, 1691.0, 1691.0, 1690.0, 1689.0, 1691.0, 1689.0, 1687.0, 1691.0, 1694.0, 1692.0, 1690.0, 1688.0, 1689.0, 1692.0, 1692.0, 1692.0, 1690.0, 1689.0, 1690.0, 1690.0, 1694.0, 1696.0, 1690.0, 1688.0, 1690.0, 1692.0, 1695.0, 1692.0, 1687.0, 1686.0, 1688.0, 1690.0, 1690.0, 1688.0, 1687.0, 1687.0, 1687.0, 1685.0, 1685.0, 1685.0, 1689.0, 1688.0, 1684.0, 1685.0, 1683.0, 1686.0, 1691.0, 1692.0, 1688.0, 1686.0, 1687.0, 1690.0, 1692.0, 1693.0, 1689.0, 1687.0, 1686.0, 1688.0, 1691.0, 1691.0, 1689.0, 1691.0, 1691.0, 1693.0, 1694.0, 1691.0, 1691.0, 1687.0, 1688.0, 1686.0, 1692.0, 1693.0, 1692.0, 1691.0, 1689.0, 1689.0, 1692.0, 1692.0, 1687.0, 1684.0, 1687.0, 1692.0, 1691.0, 1688.0, 1688.0, 1687.0, 1689.0, 1690.0, 1689.0, 1690.0, 1691.0, 1691.0, 1687.0, 1685.0, 1688.0, 1693.0, 1693.0, 1691.0, 1688.0, 1688.0, 1691.0, 1693.0, 1691.0, 1690.0, 1687.0, 1690.0, 1692.0, 1693.0, 1691.0, 1688.0, 1688.0, 1691.0, 1695.0, 1691.0, 1686.0, 1687.0, 1689.0, 1689.0, 1691.0, 1692.0, 1694.0, 1695.0, 1693.0, 1690.0, 1691.0, 1695.0, 1692.0, 1693.0, 1693.0, 1693.0, 1694.0, 1692.0, 1690.0, 1691.0, 1689.0, 1691.0, 1691.0, 1690.0]
    },
    "slices": {}
  }
}