{
  "AcquisitionMatrixPE": 64,
  "AcquisitionNumber": 1,
  "AcquisitionTime": "10:59:59.417500",
  "BandwidthPerPixelPhaseEncode": 33.967,
  "BaseResolution": 64,
  "CoilCombinationMethod": "Sum of Squares",
  "CoilString": "C:HEA;HEP",
  "ConversionSoftware": "dcm2niix",
  "ConversionSoftwareVersion": "v1.0.20220720",
  "DerivedVendorReportedEchoSpacing": 0.000460005,
  "DeviceSerialNumber": "35193",
  "DwellTime": 3.1e-06,
  "EchoTime": 0.03,
  "EffectiveEchoSpacing": 0.000460005,
  "FlipAngle": 90,
  "HeudiconvVersion": "1.1.6",
  "ImageOrientationPatientDICOM": [0.999903, -0.0139622, 0, 0.0139622, 0.999903, 0],
  "ImageOrientationText": "Tra",
  "ImageType": [
    "ORIGINAL",
    "PRIMARY",
    "M",
    "ND",
    "MOSAIC"
],
  "ImagingFrequency": 123.254,
  "InPlanePhaseEncodingDirectionDICOM": "COL",
  "InstitutionAddress": "Xinjiekouwai Street No 19,Beijing,Haidian District,CN,100875",
  "InstitutionName": "Beijing Normal Universtiy/2773C4/",
  "InstitutionalDepartmentName": "Department",
  "MRAcquisitionType": "2D",
  "MagneticFieldStrength": 3,
  "Manufacturer": "Siemens",
  "ManufacturersModelName": "TrioTim",
  "MatrixCoilMode": "SENSE",
  "Modality": "MR",
  "NonlinearGradientCorrection": false,
  "PartialFourier": 1,
  "PatientPosition": "HFS",
  "PercentPhaseFOV": 100,
  "PercentSampling": 100,
  "PhaseEncodingDirection": "j-",
  "PhaseEncodingSteps": 64,
  "PhaseResolution": 1,
  "PixelBandwidth": 2520,
  "ProcedureStepDescription": "BNU_cst_2015^Guo.TaoMei",
  "ProtocolName": "ge_func_3x3x4_164",
  "PulseSequenceDetails": "%SiemensSeq%\\ep2d_bold",
  "ReceiveCoilName": "HeadMatrix",
  "ReconMatrixPE": 64,
  "RepetitionTime": 2,
  "SAR": 0.118766,
  "ScanOptions": "FS",
  "ScanningSequence": "EP",
  "SequenceName": "*epfid2d1_64",
  "SequenceVariant": "SK",
  "SeriesDescription": "ge_func_3x3x4_164",
  "SeriesNumber": 6,
  "ShimSetting": [-4499, -19384, -9827, 899, -177, -687, -307, -171],
  "SliceThickness": 4,
  "SliceTiming": [0, 1.035, 0.0625, 1.095, 0.1225, 1.1575, 0.1825, 1.2175, 0.245, 1.2775, 0.305, 1.34, 0.365, 1.4, 0.4275, 1.46, 0.4875, 1.5225, 0.5475, 1.5825, 0.61, 1.6425, 0.67, 1.705, 0.73, 1.765, 0.7925, 1.825, 0.8525, 1.8875, 0.9125, 1.9475, 0.975],
  "SoftwareVersions": "syngo MR B17",
  "SpacingBetweenSlices": 4.6,
  "StationName": "MRC35193",
  "TaskName": "CognitiveControl",
  "TotalReadoutTime": 0.0289803,
  "TxRefAmp": 320.96,
  "dcmmeta_affine": [
    [-3.124695301055908, 0.043631989508867264, 0.0, 105.38465118408203],
    [0.043631989508867264, 3.124695301055908, 0.0, -89.49069213867188],
    [0.0, 0.0, 4.599999904632568, -60.10602569580078],
    [0.0, 0.0, 0.0, 1.0]
],
  "dcmmeta_reorient_transform": [
    [0.0, -1.0, 0.0, 63.0],
    [1.0, 0.0, 0.0, 0.0],
    [0.0, 0.0, 1.0, 0.0],
    [0.0, 0.0, 0.0, 1.0]
],
  "dcmmeta_shape": [64, 64, 33, 164],
  "dcmmeta_slice_dim": 2,
  "dcmmeta_version": 0.6,
  "global": {
    "const": {
      "AcquisitionMatrix": [64, 0, 0, 64],
      "AngioFlag": "N",
      "BitsAllocated": 16,
      "BitsStored": 12,
      "Columns": 384,
      "EchoNumbers": 1,
      "EchoTime": 30.0,
      "EchoTrainLength": 1,
      "FlipAngle": 90.0,
      "HighBit": 11,
      "ImageOrientationPatient": [0.99990252322622, -0.0139622364199, 0.0, 0.01396223641992, 0.99990252322622, 0.0],
      "ImagePositionPatient": [-615.06584360736, -600.33525686924, -60.106025695801],
      "ImageType": [
        "ORIGINAL",
        "PRIMARY",
        "M",
        "ND",
        "MOSAIC"
],
      "ImagedNucleus": "1H",
      "ImagingFrequency": 123.253646,
      "InPlanePhaseEncodingDirection": "COL",
      "MRAcquisitionType": "2D",
      "MagneticFieldStrength": 3.0,
      "Manufacturer": "SIEMENS",
      "ManufacturerModelName": "TrioTim",
      "Modality": "MR",
      "NumberOfAverages": 1.0,
      "NumberOfPhaseEncodingSteps": 64,
      "PercentPhaseFieldOfView": 100.0,
      "PercentSampling": 100.0,
      "PerformedProcedureStepStartTime": "102738.578000",
      "PhotometricInterpretation": "MONOCHROME2",
      "PixelBandwidth": 2520.0,
      "PixelRepresentation": 0,
      "PixelSpacing": [3.125, 3.125],
      "ProtocolName": "ge_func_3x3x4_164",
      "RepetitionTime": 2000.0,
      "Rows": 384,
      "SAR": 0.11876609301223,
      "SamplesPerPixel": 1,
      "ScanOptions": "FS",
      "ScanningSequence": "EP",
      "SequenceName": "*epfid2d1_64",
      "SequenceVariant": "SK",
      "SeriesDescription": "ge_func_3x3x4_164",
      "SeriesNumber": 6,
      "SeriesTime": "110049.296000",
      "SliceLocation": -60.106025695801,
      "SliceThickness": 4.0,
      "SmallestImagePixelValue": 0,
      "SoftwareVersions": "syngo MR B17",
      "SpacingBetweenSlices": 4.6000001430511,
      "SpecificCharacterSet": "ISO_IR 100",
      "StudyID": "1",
      "StudyTime": "102738.531000",
      "TransmitCoilName": "Body",
      "VariableFlipAngleFlag": "N",
      "WindowCenterWidthExplanation": "Algo1",
      "dBdt": 0.0},
    "slices": {}
  },
  "time": {
    "samples": {
      "AcquisitionNumber": [1, 2, 3, 4, 5, 6, 7, 8, 9, 10, 11, 12, 13, 14, 15, 16, 17, 18, 19, 20, 21, 22, 23, 24, 25, 26, 27, 28, 29, 30, 31, 32, 33, 34, 35, 36, 37, 38, 39, 40, 41, 42, 43, 44, 45, 46, 47, 48, 49, 50, 51, 52, 53, 54, 55, 56, 57, 58, 59, 60, 61, 62, 63, 64, 65, 66, 67, 68, 69, 70, 71, 72, 73, 74, 75, 76, 77, 78, 79, 80, 81, 82, 83, 84, 85, 86, 87, 88, 89, 90, 91, 92, 93, 94, 95, 96, 97, 98, 99, 100, 101, 102, 103, 104, 105, 106, 107, 108, 109, 110, 111, 112, 113, 114, 115, 116, 117, 118, 119, 120, 121, 122, 123, 124, 125, 126, 127, 128, 129, 130, 131, 132, 133, 134, 135, 136, 137, 138, 139, 140, 141, 142, 143, 144, 145, 146, 147, 148, 149, 150, 151, 152, 153, 154, 155, 156, 157, 158, 159, 160, 161, 162, 163, 164],
      "AcquisitionTime": ["105959.417500", "110001.427500", "110003.435000", "110005.442500", "110007.450000", "110009.457500", "110011.467500", "110013.475000", "110015.482500", "110017.490000", "110019.500000", "110021.507500", "110023.515000", "110025.522500", "110027.530000", "110029.540000", "110031.547500", "110033.555000", "110035.562500", "110037.570000", "110039.580000", "110041.587500", "110043.595000", "110045.602500", "110047.612500", "110049.620000", "110051.627500", "110053.635000", "110055.642500", "110057.652500", "110059.660000", "110101.667500", "110103.675000", "110105.682500", "110107.692500", "110109.700000", "110111.707500", "110113.715000", "110115.722500", "110117.732500", "110119.740000", "110121.747500", "110123.755000", "110125.765000", "110127.772500", "110129.780000", "110131.787500", "110133.795000", "110135.805000", "110137.812500", "110139.820000", "110141.827500", "110143.835000", "110145.845000", "110147.852500", "110149.860000", "110151.867500", "110153.877500", "110155.885000", "110157.892500", "110159.900000", "110201.907500", "110203.917500", "110205.925000", "110207.932500", "110209.940000", "110211.947500", "110213.957500", "110215.965000", "110217.972500", "110219.980000", "110221.990000", "110223.997500", "110226.005000", "110228.012500", "110230.020000", "110232.030000", "110234.037500", "110236.045000", "110238.052500", "110240.060000", "110242.070000", "110244.077500", "110246.085000", "110248.092500", "110250.100000", "110252.110000", "110254.117500", "110256.125000", "110258.132500", "110300.142500", "110302.150000", "110304.157500", "110306.165000", "110308.172500", "110310.182500", "110312.190000", "110314.197500", "110316.205000", "110318.212500", "110320.222500", "110322.230000", "110324.237500", "110326.245000", "110328.255000", "110330.262500", "110332.270000", "110334.277500", "110336.285000", "110338.295000", "110340.302500", "110342.310000", "110344.317500", "110346.325000", "110348.335000", "110350.342500", "110352.350000", "110354.357500", "110356.367500", "110358.375000", "110400.382500", "110402.390000", "110404.397500", "110406.407500", "110408.415000", "110410.422500", "110412.430000", "110414.437500", "110416.447500", "110418.455000", "110420.462500", "110422.470000", "110424.477500", "110426.487500", "110428.495000", "110430.502500", "110432.510000", "110434.520000", "110436.527500", "110438.535000", "110440.542500", "110442.550000", "110444.560000", "110446.567500", "110448.575000", "110450.582500", "110452.590000", "110454.600000", "110456.607500", "110458.615000", "110500.622500", "110502.632500", "110504.640000", "110506.647500", "110508.655000", "110510.662500", "110512.672500", "110514.680000", "110516.687500", "110518.695000", "110520.702500", "110522.712500", "110524.720000", "110526.727500"],
      "ContentTime": ["110049.312000", "110049.312000", "110049.312000", "110049.312000", "110049.312000", "110049.312000", "110049.328000", "110049.328000", "110049.328000", "110049.328000", "110049.328000", "110049.328000", "110049.343000", "110049.343000", "110049.343000", "110049.343000", "110049.343000", "110049.343000", "110049.359000", "110049.359000", "110049.359000", "110049.359000", "110049.359000", "110049.359000", "110129.296000", "110129.296000", "110129.312000", "110129.312000", "110129.312000", "110129.312000", "110129.312000", "110129.312000", "110129.312000", "110129.312000", "110129.328000", "110129.328000", "110129.328000", "110129.328000", "110129.328000", "110129.343000", "110129.343000", "110129.343000", "110129.343000", "110129.343000", "110209.296000", "110209.296000", "110209.312000", "110209.312000", "110209.312000", "110209.312000", "110209.312000", "110209.312000", "110209.312000", "110209.312000", "110209.328000", "110209.328000", "110209.328000", "110209.328000", "110209.328000", "110209.328000", "110209.328000", "110209.328000", "110209.343000", "110209.343000", "110249.296000", "110249.296000", "110249.312000", "110249.312000", "110249.312000", "110249.312000", "110249.312000", "110249.328000", "110249.328000", "110249.328000", "110249.328000", "110249.343000", "110249.343000", "110249.343000", "110249.343000", "110249.343000", "110249.343000", "110249.343000", "110249.343000", "110249.359000", "110329.296000", "110329.296000", "110329.312000", "110329.312000", "110329.312000", "110329.312000", "110329.312000", "110329.328000", "110329.328000", "110329.328000", "110329.328000", "110329.343000", "110329.343000", "110329.343000", "110329.343000", "110329.343000", "110329.343000", "110329.343000", "110329.343000", "110329.359000", "110409.296000", "110409.296000", "110409.312000", "110409.312000", "110409.312000", "110409.312000", "110409.312000", "110409.312000", "110409.328000", "110409.328000", "110409.328000", "110409.328000", "110409.328000", "110409.328000", "110409.328000", "110409.343000", "110409.343000", "110409.343000", "110409.343000", "110409.343000", "110429.296000", "110429.296000", "110429.312000", "110429.312000", "110429.312000", "110429.312000", "110429.312000", "110429.312000", "110429.312000", "110429.312000", "110509.296000", "110509.296000", "110509.312000", "110509.312000", "110509.312000", "110509.312000", "110509.312000", "110509.312000", "110509.328000", "110509.328000", "110509.328000", "110509.328000", "110509.343000", "110509.343000", "110509.343000", "110509.343000", "110509.343000", "110509.359000", "110509.359000", "110509.359000", "110528.015000", "110528.031000", "110528.031000", "110528.031000", "110528.031000", "110528.031000", "110528.031000", "110528.031000", "110528.031000", "110528.046000"],
      "InstanceCreationTime": ["110049.312000", "110049.312000", "110049.312000", "110049.312000", "110049.312000", "110049.312000", "110049.328000", "110049.328000", "110049.328000", "110049.328000", "110049.328000", "110049.328000", "110049.343000", "110049.343000", "110049.343000", "110049.343000", "110049.343000", "110049.343000", "110049.359000", "110049.359000", "110049.359000", "110049.359000", "110049.359000", "110049.359000", "110129.296000", "110129.296000", "110129.312000", "110129.312000", "110129.312000", "110129.312000", "110129.312000", "110129.312000", "110129.312000", "110129.312000", "110129.328000", "110129.328000", "110129.328000", "110129.328000", "110129.328000", "110129.343000", "110129.343000", "110129.343000", "110129.343000", "110129.343000", "110209.296000", "110209.296000", "110209.312000", "110209.312000", "110209.312000", "110209.312000", "110209.312000", "110209.312000", "110209.312000", "110209.312000", "110209.328000", "110209.328000", "110209.328000", "110209.328000", "110209.328000", "110209.328000", "110209.328000", "110209.328000", "110209.343000", "110209.343000", "110249.296000", "110249.296000", "110249.312000", "110249.312000", "110249.312000", "110249.312000", "110249.312000", "110249.328000", "110249.328000", "110249.328000", "110249.328000", "110249.343000", "110249.343000", "110249.343000", "110249.343000", "110249.343000", "110249.343000", "110249.343000", "110249.343000", "110249.359000", "110329.296000", "110329.296000", "110329.312000", "110329.312000", "110329.312000", "110329.312000", "110329.312000", "110329.328000", "110329.328000", "110329.328000", "110329.328000", "110329.343000", "110329.343000", "110329.343000", "110329.343000", "110329.343000", "110329.343000", "110329.343000", "110329.343000", "110329.359000", "110409.296000", "110409.296000", "110409.312000", "110409.312000", "110409.312000", "110409.312000", "110409.312000", "110409.312000", "110409.328000", "110409.328000", "110409.328000", "110409.328000", "110409.328000", "110409.328000", "110409.328000", "110409.343000", "110409.343000", "110409.343000", "110409.343000", "110409.343000", "110429.296000", "110429.296000", "110429.312000", "110429.312000", "110429.312000", "110429.312000", "110429.312000", "110429.312000", "110429.312000", "110429.312000", "110509.296000", "110509.296000", "110509.312000", "110509.312000", "110509.312000", "110509.312000", "110509.312000", "110509.312000", "110509.328000", "110509.328000", "110509.328000", "110509.328000", "110509.343000", "110509.343000", "110509.343000", "110509.343000", "110509.343000", "110509.359000", "110509.359000", "110509.359000", "110528.015000", "110528.031000", "110528.031000", "110528.031000", "110528.031000", "110528.031000", "110528.031000", "110528.031000", "110528.031000", "110528.046000"],
      "InstanceNumber": [1, 2, 3, 4, 5, 6, 7, 8, 9, 10, 11, 12, 13, 14, 15, 16, 17, 18, 19, 20, 21, 22, 23, 24, 25, 26, 27, 28, 29, 30, 31, 32, 33, 34, 35, 36, 37, 38, 39, 40, 41, 42, 43, 44, 45, 46, 47, 48, 49, 50, 51, 52, 53, 54, 55, 56, 57, 58, 59, 60, 61, 62, 63, 64, 65, 66, 67, 68, 69, 70, 71, 72, 73, 74, 75, 76, 77, 78, 79, 80, 81, 82, 83, 84, 85, 86, 87, 88, 89, 90, 91, 92, 93, 94, 95, 96, 97, 98, 99, 100, 101, 102, 103, 104, 105, 106, 107, 108, 109, 110, 111, 112, 113, 114, 115, 116, 117, 118, 119, 120, 121, 122, 123, 124, 125, 126, 127, 128, 129, 130, 131, 132, 133, 134, 135, 136, 137, 138, 139, 140, 141, 142, 143, 144, 145, 146, 147, 148, 149, 150, 151, 152, 153, 154, 155, 156, 157, 158, 159, 160, 161, 162, 163, 164],
      "LargestImagePixelValue": [2315, 2211, 2203, 2188, 2177, 2174, 2181, 2177, 2193, 2179, 2182, 2192, 2172, 2178, 2177, 2178, 2178, 2178, 2182, 2175, 2173, 2183, 2192, 2186, 2175, 2165, 2173, 2185, 2185, 2181, 2173, 2178, 2181, 2186, 2178, 2167, 2187, 2181, 2177, 2190, 2176, 2180, 2181, 2178, 2185, 2177, 2178, 2169, 2164, 2173, 2185, 2193, 2192, 2170, 2180, 2184, 2183, 2179, 2174, 2190, 2176, 2180, 2178, 2179, 2194, 2183, 2172, 2188, 2191, 2170, 2179, 2173, 2168, 2173, 2192, 2186, 2181, 2160, 2172, 2163, 2170, 2176, 2170, 2186, 2180, 2176, 2187, 2167, 2155, 2188, 2170, 2193, 2178, 2191, 2195, 2185, 2180, 2184, 2190, 2183, 2180, 2177, 2178, 2181, 2170, 2176, 2166, 2178, 2173, 2178, 2172, 2169, 2183, 2175, 2170, 2175, 2175, 2173, 2179, 2162, 2161, 2190, 2194, 2179, 2166, 2186, 2181, 2178, 2173, 2183, 2173, 2179, 2171, 2174, 2184, 2173, 2169, 2168, 2181, 2184, 2177, 2177, 2181, 2175, 2184, 2163, 2189, 2191, 2191, 2174, 2175, 2180, 2197, 2195, 2171, 2187, 2199, 2178, 2175, 2177, 2185, 2185, 2176, 2185],
      "WindowCenter": [776.0, 774.0, 773.0, 772.0, 770.0, 770.0, 771.0, 771.0, 770.0, 770.0, 772.0, 772.0, 771.0, 771.0, 771.0, 772.0, 772.0, 772.0, 771.0, 770.0, 770.0, 772.0, 773.0, 772.0, 771.0, 770.0, 772.0, 773.0, 773.0, 772.0, 771.0, 771.0, 772.0, 773.0, 774.0, 773.0, 772.0, 772.0, 773.0, 772.0, 772.0, 771.0, 772.0, 772.0, 772.0, 771.0, 771.0, 771.0, 772.0, 772.0, 772.0, 773.0, 772.0, 771.0, 772.0, 773.0, 773.0, 773.0, 772.0, 771.0, 771.0, 772.0, 772.0, 772.0, 773.0, 772.0, 773.0, 774.0, 773.0, 772.0, 773.0, 774.0, 773.0, 771.0, 771.0, 772.0, 773.0, 772.0, 771.0, 772.0, 772.0, 772.0, 772.0, 772.0, 772.0, 773.0, 773.0, 773.0, 772.0, 772.0, 773.0, 773.0, 773.0, 773.0, 773.0, 772.0, 773.0, 773.0, 774.0, 773.0, 773.0, 773.0, 773.0, 775.0, 775.0, 774.0, 773.0, 772.0, 772.0, 773.0, 774.0, 773.0, 772.0, 772.0, 773.0, 773.0, 773.0, 773.0, 773.0, 773.0, 774.0, 773.0, 773.0, 773.0, 773.0, 773.0, 774.0, 774.0, 774.0, 773.0, 772.0, 773.0, 773.0, 774.0, 774.0, 774.0, 772.0, 772.0, 772.0, 774.0, 774.0, 773.0, 772.0, 772.0, 773.0, 773.0, 774.0, 774.0, 774.0, 774.0, 774.0, 774.0, 775.0, 775.0, 774.0, 773.0, 773.0, 773.0, 772.0, 773.0, 773.0, 773.0, 774.0, 774.0],
      "WindowWidth": [1708.0, 1700.0, 1696.0, 1693.0, 1689.0, 1688.0, 1693.0, 1691.0, 1689.0, 1688.0, 1693.0, 1695.0, 1691.0, 1690.0, 1692.0, 1693.0, 1694.0, 1694.0, 1691.0, 1689.0, 1689.0, 1693.0, 1697.0, 1694.0, 1689.0, 1688.0, 1693.0, 1696.0, 1697.0, 1694.0, 1692.0, 1691.0, 1693.0, 1698.0, 1699.0, 1697.0, 1694.0, 1694.0, 1696.0, 1695.0, 1693.0, 1692.0, 1695.0, 1695.0, 1694.0, 1692.0, 1692.0, 1693.0, 1694.0, 1695.0, 1695.0, 1696.0, 1694.0, 1692.0, 1693.0, 1696.0, 1697.0, 1697.0, 1695.0, 1692.0, 1692.0, 1693.0, 1693.0, 1695.0, 1696.0, 1695.0, 1696.0, 1698.0, 1696.0, 1693.0, 1696.0, 1700.0, 1696.0, 1691.0, 1690.0, 1693.0, 1697.0, 1695.0, 1692.0, 1693.0, 1694.0, 1695.0, 1696.0, 1693.0, 1695.0, 1698.0, 1698.0, 1696.0, 1694.0, 1694.0, 1696.0, 1697.0, 1696.0, 1696.0, 1696.0, 1695.0, 1696.0, 1699.0, 1700.0, 1698.0, 1697.0, 1696.0, 1697.0, 1702.0, 1702.0, 1699.0, 1695.0, 1694.0, 1694.0, 1698.0, 1700.0, 1696.0, 1694.0, 1695.0, 1696.0, 1697.0, 1697.0, 1696.0, 1697.0, 1697.0, 1698.0, 1695.0, 1697.0, 1698.0, 1697.0, 1695.0, 1699.0, 1701.0, 1699.0, 1695.0, 1694.0, 1696.0, 1696.0, 1699.0, 1701.0, 1698.0, 1694.0, 1695.0, 1695.0, 1700.0, 1700.0, 1697.0, 1693.0, 1692.0, 1695.0, 1697.0, 1698.0, 1700.0, 1700.0, 1700.0, 1699.0, 1700.0, 1701.0, 1702.0, 1699.0, 1696.0, 1696.0, 1696.0, 1695.0, 1696.0, 1698.0, 1698.0, 1698.0, 1700.0]
    },
    "slices": {}
  }
}