{
  "AcquisitionMatrixPE": 64,
  "AcquisitionNumber": 1,
  "AcquisitionTime": "14:47:19.760000",
  "BandwidthPerPixelPhaseEncode": 33.967,
  "BaseResolution": 64,
  "CoilCombinationMethod": "Sum of Squares",
  "CoilString": "C:HEA;HEP",
  "ConversionSoftware": "dcm2niix",
  "ConversionSoftwareVersion": "v1.0.20220720",
  "DerivedVendorReportedEchoSpacing": 0.000460005,
  "DeviceSerialNumber": "35193",
  "DwellTime": 3.1e-06,
  "EchoTime": 0.03,
  "EffectiveEchoSpacing": 0.000460005,
  "FlipAngle": 90,
  "HeudiconvVersion": "1.1.6",
  "ImageOrientationPatientDICOM": [1, 0, 0, 0, 1, 0],
  "ImageOrientationText": "Tra",
  "ImageType": [
    "ORIGINAL",
    "PRIMARY",
    "M",
    "ND",
    "MOSAIC"
],
  "ImagingFrequency": 123.254,
  "InPlanePhaseEncodingDirectionDICOM": "COL",
  "InstitutionAddress": "Xinjiekouwai Street No 19,Beijing,Haidian District,CN,100875",
  "InstitutionName": "Beijing Normal Universtiy/4C3F54/",
  "InstitutionalDepartmentName": "Department",
  "MRAcquisitionType": "2D",
  "MagneticFieldStrength": 3,
  "Manufacturer": "Siemens",
  "ManufacturersModelName": "TrioTim",
  "MatrixCoilMode": "SENSE",
  "Modality": "MR",
  "NonlinearGradientCorrection": false,
  "PartialFourier": 1,
  "PatientPosition": "HFS",
  "PercentPhaseFOV": 100,
  "PercentSampling": 100,
  "PhaseEncodingDirection": "j-",
  "PhaseEncodingSteps": 64,
  "PhaseResolution": 1,
  "PixelBandwidth": 2520,
  "ProcedureStepDescription": "BNU_cst_2015^Guo.TaoMei",
  "ProtocolName": "ge_func_3x3x4_164",
  "PulseSequenceDetails": "%SiemensSeq%\\ep2d_bold",
  "ReceiveCoilName": "HeadMatrix",
  "ReconMatrixPE": 64,
  "RepetitionTime": 2,
  "SAR": 0.125273,
  "ScanOptions": "FS",
  "ScanningSequence": "EP",
  "SequenceName": "*epfid2d1_64",
  "SequenceVariant": "SK",
  "SeriesDescription": "ge_func_3x3x4_164",
  "SeriesNumber": 5,
  "ShimSetting": [-4480, -19412, -9911, 1007, -175, -320, -99, -87],
  "SliceThickness": 4,
  "SliceTiming": [0, 1.0325, 0.06, 1.095, 0.12, 1.155, 0.1825, 1.215, 0.2425, 1.2775, 0.3025, 1.3375, 0.365, 1.3975, 0.425, 1.46, 0.485, 1.52, 0.5475, 1.58, 0.6075, 1.6425, 0.6675, 1.7025, 0.73, 1.7625, 0.79, 1.825, 0.85, 1.885, 0.9125, 1.945, 0.9725],
  "SoftwareVersions": "syngo MR B17",
  "SpacingBetweenSlices": 4.6,
  "StationName": "MRC35193",
  "TaskName": "CognitiveControl",
  "TotalReadoutTime": 0.0289803,
  "TxRefAmp": 330.52,
  "dcmmeta_affine": [
    [-3.125, 0.0, 0.0, 111.46987915039062],
    [0.0, 3.125, 0.0, -84.73042297363281],
    [0.0, 0.0, 4.599999904632568, -68.20240783691406],
    [0.0, 0.0, 0.0, 1.0]
],
  "dcmmeta_reorient_transform": [
    [0.0, -1.0, 0.0, 63.0],
    [1.0, 0.0, 0.0, 0.0],
    [0.0, 0.0, 1.0, 0.0],
    [0.0, 0.0, 0.0, 1.0]
],
  "dcmmeta_shape": [64, 64, 33, 164],
  "dcmmeta_slice_dim": 2,
  "dcmmeta_version": 0.6,
  "global": {
    "const": {
      "AcquisitionMatrix": [64, 0, 0, 64],
      "AngioFlag": "N",
      "BitsAllocated": 16,
      "BitsStored": 12,
      "Columns": 384,
      "EchoNumbers": 1,
      "EchoTime": 30.0,
      "EchoTrainLength": 1,
      "FlipAngle": 90.0,
      "HighBit": 11,
      "ImageOrientationPatient": [1.0, 0.0, 0.0, 0.0, 1.0, 0.0],
      "ImagePositionPatient": [-611.46987915039, -612.14457798004, -68.202407836914],
      "ImageType": [
        "ORIGINAL",
        "PRIMARY",
        "M",
        "ND",
        "MOSAIC"
],
      "ImagedNucleus": "1H",
      "ImagingFrequency": 123.253697,
      "InPlanePhaseEncodingDirection": "COL",
      "MRAcquisitionType": "2D",
      "MagneticFieldStrength": 3.0,
      "Manufacturer": "SIEMENS",
      "ManufacturerModelName": "TrioTim",
      "Modality": "MR",
      "NumberOfAverages": 1.0,
      "NumberOfPhaseEncodingSteps": 64,
      "PercentPhaseFieldOfView": 100.0,
      "PercentSampling": 100.0,
      "PerformedProcedureStepStartTime": "141437.640000",
      "PhotometricInterpretation": "MONOCHROME2",
      "PixelBandwidth": 2520.0,
      "PixelRepresentation": 0,
      "PixelSpacing": [3.125, 3.125],
      "ProtocolName": "ge_func_3x3x4_164",
      "RepetitionTime": 2000.0,
      "Rows": 384,
      "SAR": 0.12527252320426,
      "SamplesPerPixel": 1,
      "ScanOptions": "FS",
      "ScanningSequence": "EP",
      "SequenceName": "*epfid2d1_64",
      "SequenceVariant": "SK",
      "SeriesDescription": "ge_func_3x3x4_164",
      "SeriesNumber": 5,
      "SeriesTime": "144804.078000",
      "SliceLocation": -68.202407836914,
      "SliceThickness": 4.0,
      "SmallestImagePixelValue": 0,
      "SoftwareVersions": "syngo MR B17",
      "SpacingBetweenSlices": 4.5999999046326,
      "SpecificCharacterSet": "ISO_IR 100",
      "StudyID": "1",
      "StudyTime": "141437.593000",
      "TransmitCoilName": "Body",
      "VariableFlipAngleFlag": "N",
      "WindowCenterWidthExplanation": "Algo1",
      "dBdt": 0.0},
    "slices": {}
  },
  "time": {
    "samples": {
      "AcquisitionNumber": [1, 2, 3, 4, 5, 6, 7, 8, 9, 10, 11, 12, 13, 14, 15, 16, 17, 18, 19, 20, 21, 22, 23, 24, 25, 26, 27, 28, 29, 30, 31, 32, 33, 34, 35, 36, 37, 38, 39, 40, 41, 42, 43, 44, 45, 46, 47, 48, 49, 50, 51, 52, 53, 54, 55, 56, 57, 58, 59, 60, 61, 62, 63, 64, 65, 66, 67, 68, 69, 70, 71, 72, 73, 74, 75, 76, 77, 78, 79, 80, 81, 82, 83, 84, 85, 86, 87, 88, 89, 90, 91, 92, 93, 94, 95, 96, 97, 98, 99, 100, 101, 102, 103, 104, 105, 106, 107, 108, 109, 110, 111, 112, 113, 114, 115, 116, 117, 118, 119, 120, 121, 122, 123, 124, 125, 126, 127, 128, 129, 130, 131, 132, 133, 134, 135, 136, 137, 138, 139, 140, 141, 142, 143, 144, 145, 146, 147, 148, 149, 150, 151, 152, 153, 154, 155, 156, 157, 158, 159, 160, 161, 162, 163, 164],
      "AcquisitionTime": ["144719.760000", "144721.767500", "144723.775000", "144725.782500", "144727.790000", "144729.800000", "144731.807500", "144733.815000", "144735.822500", "144737.830000", "144739.840000", "144741.847500", "144743.855000", "144745.862500", "144747.870000", "144749.880000", "144751.887500", "144753.895000", "144755.902500", "144757.912500", "144759.920000", "144801.927500", "144803.935000", "144805.942500", "144807.952500", "144809.960000", "144811.967500", "144813.975000", "144815.982500", "144817.992500", "144820.000000", "144822.007500", "144824.015000", "144826.025000", "144828.032500", "144830.040000", "144832.047500", "144834.055000", "144836.065000", "144838.072500", "144840.080000", "144842.087500", "144844.095000", "144846.105000", "144848.112500", "144850.120000", "144852.127500", "144854.137500", "144856.145000", "144858.152500", "144900.160000", "144902.167500", "144904.177500", "144906.185000", "144908.192500", "144910.200000", "144912.207500", "144914.217500", "144916.225000", "144918.232500", "144920.240000", "144922.247500", "144924.257500", "144926.265000", "144928.272500", "144930.280000", "144932.290000", "144934.297500", "144936.305000", "144938.312500", "144940.320000", "144942.330000", "144944.337500", "144946.345000", "144948.352500", "144950.360000", "144952.370000", "144954.377500", "144956.385000", "144958.392500", "145000.402500", "145002.410000", "145004.417500", "145006.425000", "145008.432500", "145010.442500", "145012.450000", "145014.457500", "145016.465000", "145018.472500", "145020.482500", "145022.490000", "145024.497500", "145026.505000", "145028.515000", "145030.522500", "145032.530000", "145034.537500", "145036.545000", "145038.555000", "145040.562500", "145042.570000", "145044.577500", "145046.585000", "145048.595000", "145050.602500", "145052.610000", "145054.617500", "145056.625000", "145058.635000", "145100.642500", "145102.650000", "145104.657500", "145106.667500", "145108.675000", "145110.682500", "145112.690000", "145114.697500", "145116.707500", "145118.715000", "145120.722500", "145122.730000", "145124.737500", "145126.747500", "145128.755000", "145130.762500", "145132.770000", "145134.780000", "145136.787500", "145138.795000", "145140.802500", "145142.810000", "145144.820000", "145146.827500", "145148.835000", "145150.842500", "145152.850000", "145154.860000", "145156.867500", "145158.875000", "145200.882500", "145202.892500", "145204.900000", "145206.907500", "145208.915000", "145210.922500", "145212.932500", "145214.940000", "145216.947500", "145218.955000", "145220.962500", "145222.972500", "145224.980000", "145226.987500", "145228.995000", "145231.002500", "145233.012500", "145235.020000", "145237.027500", "145239.035000", "145241.045000", "145243.052500", "145245.060000", "145247.067500"],
      "ContentTime": ["144804.093000", "144804.093000", "144804.093000", "144804.093000", "144804.093000", "144804.109000", "144804.109000", "144804.109000", "144804.109000", "144804.109000", "144804.125000", "144804.125000", "144804.125000", "144804.125000", "144804.125000", "144804.125000", "144804.125000", "144804.125000", "144804.140000", "144804.140000", "144804.140000", "144844.078000", "144844.078000", "144844.093000", "144844.093000", "144844.093000", "144844.093000", "144844.093000", "144844.093000", "144844.093000", "144844.093000", "144844.109000", "144844.109000", "144844.109000", "144844.109000", "144844.109000", "144844.109000", "144844.109000", "144844.109000", "144844.109000", "144844.125000", "144904.078000", "144904.078000", "144904.093000", "144904.093000", "144904.093000", "144904.093000", "144904.093000", "144904.093000", "144904.093000", "144904.093000", "144944.078000", "144944.078000", "144944.093000", "144944.093000", "144944.093000", "144944.093000", "144944.093000", "144944.093000", "144944.109000", "144944.109000", "144944.109000", "144944.109000", "144944.109000", "144944.109000", "144944.109000", "144944.109000", "144944.125000", "144944.125000", "144944.125000", "144944.125000", "145024.078000", "145024.078000", "145024.093000", "145024.093000", "145024.093000", "145024.093000", "145024.093000", "145024.093000", "145024.093000", "145024.093000", "145024.109000", "145024.109000", "145024.109000", "145024.109000", "145024.125000", "145024.125000", "145024.125000", "145024.125000", "145024.125000", "145024.140000", "145104.078000", "145104.078000", "145104.093000", "145104.093000", "145104.093000", "145104.093000", "145104.093000", "145104.093000", "145104.093000", "145104.109000", "145104.109000", "145104.109000", "145104.109000", "145104.109000", "145104.109000", "145104.109000", "145104.109000", "145104.109000", "145104.125000", "145104.125000", "145144.078000", "145144.078000", "145144.093000", "145144.093000", "145144.093000", "145144.093000", "145144.093000", "145144.093000", "145144.093000", "145144.093000", "145144.109000", "145144.109000", "145144.109000", "145144.109000", "145144.125000", "145144.125000", "145144.125000", "145144.125000", "145144.125000", "145144.125000", "145224.078000", "145224.078000", "145224.093000", "145224.093000", "145224.109000", "145224.109000", "145224.109000", "145224.109000", "145224.109000", "145224.109000", "145224.125000", "145224.125000", "145224.125000", "145224.125000", "145224.125000", "145224.125000", "145224.125000", "145224.125000", "145224.140000", "145224.140000", "145248.578000", "145248.578000", "145248.593000", "145248.593000", "145248.593000", "145248.593000", "145248.593000", "145248.609000", "145248.609000", "145248.609000", "145248.609000", "145248.609000", "145248.609000"],
      "InstanceCreationTime": ["144804.093000", "144804.093000", "144804.093000", "144804.093000", "144804.093000", "144804.109000", "144804.109000", "144804.109000", "144804.109000", "144804.109000", "144804.125000", "144804.125000", "144804.125000", "144804.125000", "144804.125000", "144804.125000", "144804.125000", "144804.125000", "144804.140000", "144804.140000", "144804.140000", "144844.078000", "144844.078000", "144844.093000", "144844.093000", "144844.093000", "144844.093000", "144844.093000", "144844.093000", "144844.093000", "144844.093000", "144844.109000", "144844.109000", "144844.109000", "144844.109000", "144844.109000", "144844.109000", "144844.109000", "144844.109000", "144844.109000", "144844.125000", "144904.078000", "144904.078000", "144904.093000", "144904.093000", "144904.093000", "144904.093000", "144904.093000", "144904.093000", "144904.093000", "144904.093000", "144944.078000", "144944.078000", "144944.093000", "144944.093000", "144944.093000", "144944.093000", "144944.093000", "144944.093000", "144944.109000", "144944.109000", "144944.109000", "144944.109000", "144944.109000", "144944.109000", "144944.109000", "144944.109000", "144944.125000", "144944.125000", "144944.125000", "144944.125000", "145024.078000", "145024.078000", "145024.093000", "145024.093000", "145024.093000", "145024.093000", "145024.093000", "145024.093000", "145024.093000", "145024.093000", "145024.109000", "145024.109000", "145024.109000", "145024.109000", "145024.125000", "145024.125000", "145024.125000", "145024.125000", "145024.125000", "145024.140000", "145104.078000", "145104.078000", "145104.093000", "145104.093000", "145104.093000", "145104.093000", "145104.093000", "145104.093000", "145104.093000", "145104.109000", "145104.109000", "145104.109000", "145104.109000", "145104.109000", "145104.109000", "145104.109000", "145104.109000", "145104.109000", "145104.125000", "145104.125000", "145144.078000", "145144.078000", "145144.093000", "145144.093000", "145144.093000", "145144.093000", "145144.093000", "145144.093000", "145144.093000", "145144.093000", "145144.109000", "145144.109000", "145144.109000", "145144.109000", "145144.125000", "145144.125000", "145144.125000", "145144.125000", "145144.125000", "145144.125000", "145224.078000", "145224.078000", "145224.093000", "145224.093000", "145224.109000", "145224.109000", "145224.109000", "145224.109000", "145224.109000", "145224.109000", "145224.125000", "145224.125000", "145224.125000", "145224.125000", "145224.125000", "145224.125000", "145224.125000", "145224.125000", "145224.140000", "145224.140000", "145248.578000", "145248.578000", "145248.593000", "145248.593000", "145248.593000", "145248.593000", "145248.593000", "145248.609000", "145248.609000", "145248.609000", "145248.609000", "145248.609000", "145248.609000"],
      "InstanceNumber": [1, 2, 3, 4, 5, 6, 7, 8, 9, 10, 11, 12, 13, 14, 15, 16, 17, 18, 19, 20, 21, 22, 23, 24, 25, 26, 27, 28, 29, 30, 31, 32, 33, 34, 35, 36, 37, 38, 39, 40, 41, 42, 43, 44, 45, 46, 47, 48, 49, 50, 51, 52, 53, 54, 55, 56, 57, 58, 59, 60, 61, 62, 63, 64, 65, 66, 67, 68, 69, 70, 71, 72, 73, 74, 75, 76, 77, 78, 79, 80, 81, 82, 83, 84, 85, 86, 87, 88, 89, 90, 91, 92, 93, 94, 95, 96, 97, 98, 99, 100, 101, 102, 103, 104, 105, 106, 107, 108, 109, 110, 111, 112, 113, 114, 115, 116, 117, 118, 119, 120, 121, 122, 123, 124, 125, 126, 127, 128, 129, 130, 131, 132, 133, 134, 135, 136, 137, 138, 139, 140, 141, 142, 143, 144, 145, 146, 147, 148, 149, 150, 151, 152, 153, 154, 155, 156, 157, 158, 159, 160, 161, 162, 163, 164],
      "LargestImagePixelValue": [1960, 1896, 1874, 1854, 1900, 1866, 1845, 1866, 1888, 1859, 1847, 1869, 1860, 1852, 1899, 1851, 1870, 1907, 1864, 1855, 1899, 1866, 1886, 1856, 1853, 1897, 1877, 1870, 1895, 1880, 1865, 1887, 1858, 1897, 1896, 1869, 1890, 1908, 1879, 1870, 1875, 1878, 1876, 1868, 1889, 1889, 1857, 1882, 1887, 1878, 1888, 1865, 1882, 1916, 1903, 1888, 1892, 1888, 1876, 1883, 1869, 1856, 1877, 1901, 1854, 1869, 1863, 1868, 1901, 1900, 1882, 1901, 1864, 1887, 1891, 1876, 1877, 1885, 1888, 1881, 1920, 1864, 1862, 1887, 1892, 1902, 1870, 1917, 1858, 1867, 1886, 1873, 1875, 1886, 1863, 1852, 1866, 1855, 1872, 1894, 2011, 1897, 1866, 1871, 1983, 1940, 1882, 1904, 1920, 1884, 1891, 1871, 1875, 1898, 1865, 1878, 1888, 1861, 1930, 1884, 1865, 1859, 1874, 1887, 1880, 1888, 1889, 1851, 1872, 1898, 1857, 1866, 1796, 1800, 1857, 1825, 1856, 1805, 1803, 1809, 1847, 1808, 1835, 1896, 1821, 1809, 1823, 1802, 1812, 1826, 1832, 1819, 1822, 1807, 1817, 1804, 1824, 1834, 1816, 1805, 1794, 1812, 1815, 1818],
      "WindowCenter": [746.0, 744.0, 743.0, 743.0, 743.0, 742.0, 741.0, 741.0, 741.0, 741.0, 740.0, 741.0, 741.0, 741.0, 741.0, 741.0, 741.0, 742.0, 742.0, 742.0, 742.0, 742.0, 743.0, 743.0, 743.0, 743.0, 742.0, 742.0, 742.0, 742.0, 742.0, 742.0, 741.0, 742.0, 742.0, 742.0, 742.0, 742.0, 742.0, 742.0, 742.0, 742.0, 742.0, 742.0, 742.0, 742.0, 742.0, 742.0, 743.0, 743.0, 743.0, 743.0, 743.0, 743.0, 742.0, 742.0, 742.0, 743.0, 742.0, 743.0, 742.0, 742.0, 743.0, 743.0, 743.0, 743.0, 742.0, 742.0, 743.0, 743.0, 743.0, 743.0, 743.0, 742.0, 743.0, 743.0, 743.0, 743.0, 743.0, 743.0, 743.0, 743.0, 743.0, 743.0, 744.0, 743.0, 743.0, 743.0, 743.0, 743.0, 743.0, 743.0, 743.0, 743.0, 743.0, 742.0, 743.0, 743.0, 744.0, 744.0, 745.0, 744.0, 743.0, 742.0, 740.0, 738.0, 737.0, 738.0, 738.0, 739.0, 740.0, 741.0, 743.0, 744.0, 744.0, 745.0, 744.0, 744.0, 744.0, 744.0, 744.0, 743.0, 743.0, 743.0, 743.0, 743.0, 743.0, 743.0, 743.0, 743.0, 743.0, 744.0, 744.0, 743.0, 744.0, 743.0, 743.0, 742.0, 743.0, 742.0, 743.0, 743.0, 744.0, 743.0, 742.0, 742.0, 743.0, 743.0, 743.0, 744.0, 744.0, 743.0, 743.0, 743.0, 744.0, 744.0, 744.0, 744.0, 744.0, 743.0, 743.0, 744.0, 744.0, 744.0],
      "WindowWidth": [1640.0, 1632.0, 1631.0, 1629.0, 1630.0, 1627.0, 1625.0, 1625.0, 1624.0, 1624.0, 1622.0, 1623.0, 1624.0, 1624.0, 1625.0, 1625.0, 1625.0, 1626.0, 1626.0, 1626.0, 1628.0, 1628.0, 1629.0, 1629.0, 1630.0, 1629.0, 1628.0, 1627.0, 1628.0, 1628.0, 1626.0, 1626.0, 1625.0, 1627.0, 1628.0, 1628.0, 1628.0, 1627.0, 1627.0, 1627.0, 1626.0, 1627.0, 1626.0, 1627.0, 1627.0, 1626.0, 1626.0, 1628.0, 1631.0, 1629.0, 1630.0, 1631.0, 1630.0, 1629.0, 1629.0, 1627.0, 1627.0, 1629.0, 1628.0, 1629.0, 1628.0, 1628.0, 1629.0, 1630.0, 1629.0, 1629.0, 1628.0, 1628.0, 1631.0, 1632.0, 1630.0, 1629.0, 1629.0, 1628.0, 1629.0, 1631.0, 1629.0, 1630.0, 1629.0, 1629.0, 1630.0, 1630.0, 1630.0, 1631.0, 1632.0, 1632.0, 1630.0, 1629.0, 1629.0, 1630.0, 1631.0, 1630.0, 1630.0, 1630.0, 1631.0, 1628.0, 1630.0, 1630.0, 1632.0, 1633.0, 1636.0, 1632.0, 1630.0, 1628.0, 1622.0, 1616.0, 1614.0, 1615.0, 1617.0, 1618.0, 1622.0, 1624.0, 1630.0, 1632.0, 1632.0, 1634.0, 1633.0, 1632.0, 1633.0, 1632.0, 1631.0, 1630.0, 1630.0, 1630.0, 1629.0, 1629.0, 1630.0, 1629.0, 1630.0, 1631.0, 1629.0, 1632.0, 1633.0, 1630.0, 1631.0, 1628.0, 1629.0, 1627.0, 1629.0, 1628.0, 1629.0, 1630.0, 1631.0, 1630.0, 1626.0, 1627.0, 1629.0, 1629.0, 1629.0, 1632.0, 1631.0, 1631.0, 1629.0, 1628.0, 1631.0, 1631.0, 1633.0, 1633.0, 1631.0, 1629.0, 1628.0, 1631.0, 1632.0, 1631.0]
    },
    "slices": {}
  }
}