{
  "AcquisitionMatrixPE": 64,
  "AcquisitionNumber": 1,
  "AcquisitionTime": "14:33:46.005000",
  "BandwidthPerPixelPhaseEncode": 33.967,
  "BaseResolution": 64,
  "CoilCombinationMethod": "Sum of Squares",
  "CoilString": "C:HEA;HEP",
  "ConversionSoftware": "dcm2niix",
  "ConversionSoftwareVersion": "v1.0.20220720",
  "DerivedVendorReportedEchoSpacing": 0.000460005,
  "DeviceSerialNumber": "35193",
  "DwellTime": 3.1e-06,
  "EchoTime": 0.03,
  "EffectiveEchoSpacing": 0.000460005,
  "FlipAngle": 90,
  "HeudiconvVersion": "1.1.6",
  "ImageOrientationPatientDICOM": [1, 0, 0, 0, 1, 0],
  "ImageOrientationText": "Tra",
  "ImageType": [
    "ORIGINAL",
    "PRIMARY",
    "M",
    "ND",
    "MOSAIC"
],
  "ImagingFrequency": 123.254,
  "InPlanePhaseEncodingDirectionDICOM": "COL",
  "InstitutionAddress": "Xinjiekouwai Street No 19,Beijing,Haidian District,CN,100875",
  "InstitutionName": "Beijing Normal Universtiy/4C3F54/",
  "InstitutionalDepartmentName": "Department",
  "MRAcquisitionType": "2D",
  "MagneticFieldStrength": 3,
  "Manufacturer": "Siemens",
  "ManufacturersModelName": "TrioTim",
  "MatrixCoilMode": "SENSE",
  "Modality": "MR",
  "NonlinearGradientCorrection": false,
  "PartialFourier": 1,
  "PatientPosition": "HFS",
  "PercentPhaseFOV": 100,
  "PercentSampling": 100,
  "PhaseEncodingDirection": "j-",
  "PhaseEncodingSteps": 64,
  "PhaseResolution": 1,
  "PixelBandwidth": 2520,
  "ProcedureStepDescription": "BNU_cst_2015^Guo.TaoMei",
  "ProtocolName": "ge_func_3x3x4_164",
  "PulseSequenceDetails": "%SiemensSeq%\\ep2d_bold",
  "ReceiveCoilName": "HeadMatrix",
  "ReconMatrixPE": 64,
  "RepetitionTime": 2,
  "SAR": 0.125273,
  "ScanOptions": "FS",
  "ScanningSequence": "EP",
  "SequenceName": "*epfid2d1_64",
  "SequenceVariant": "SK",
  "SeriesDescription": "ge_func_3x3x4_164",
  "SeriesNumber": 3,
  "ShimSetting": [-4480, -19412, -9911, 1007, -175, -320, -99, -87],
  "SliceThickness": 4,
  "SliceTiming": [0, 1.035, 0.06, 1.095, 0.1225, 1.155, 0.1825, 1.2175, 0.2425, 1.2775, 0.305, 1.3375, 0.365, 1.4, 0.425, 1.46, 0.4875, 1.52, 0.5475, 1.5825, 0.6075, 1.6425, 0.67, 1.7025, 0.73, 1.765, 0.79, 1.825, 0.8525, 1.885, 0.9125, 1.9475, 0.9725],
  "SoftwareVersions": "syngo MR B17",
  "SpacingBetweenSlices": 4.6,
  "StationName": "MRC35193",
  "TaskName": "LanguageControl",
  "TotalReadoutTime": 0.0289803,
  "TxRefAmp": 330.52,
  "dcmmeta_affine": [
    [-3.125, 0.0, 0.0, 111.46987915039062],
    [0.0, 3.125, 0.0, -84.73042297363281],
    [0.0, 0.0, 4.599999904632568, -68.20240783691406],
    [0.0, 0.0, 0.0, 1.0]
],
  "dcmmeta_reorient_transform": [
    [0.0, -1.0, 0.0, 63.0],
    [1.0, 0.0, 0.0, 0.0],
    [0.0, 0.0, 1.0, 0.0],
    [0.0, 0.0, 0.0, 1.0]
],
  "dcmmeta_shape": [64, 64, 33, 164],
  "dcmmeta_slice_dim": 2,
  "dcmmeta_version": 0.6,
  "global": {
    "const": {
      "AcquisitionMatrix": [64, 0, 0, 64],
      "AngioFlag": "N",
      "BitsAllocated": 16,
      "BitsStored": 12,
      "Columns": 384,
      "EchoNumbers": 1,
      "EchoTime": 30.0,
      "EchoTrainLength": 1,
      "FlipAngle": 90.0,
      "HighBit": 11,
      "ImageOrientationPatient": [1.0, 0.0, 0.0, 0.0, 1.0, 0.0],
      "ImagePositionPatient": [-611.46987915039, -612.14457798004, -68.202407836914],
      "ImageType": [
        "ORIGINAL",
        "PRIMARY",
        "M",
        "ND",
        "MOSAIC"
],
      "ImagedNucleus": "1H",
      "ImagingFrequency": 123.253696,
      "InPlanePhaseEncodingDirection": "COL",
      "MRAcquisitionType": "2D",
      "MagneticFieldStrength": 3.0,
      "Manufacturer": "SIEMENS",
      "ManufacturerModelName": "TrioTim",
      "Modality": "MR",
      "NumberOfAverages": 1.0,
      "NumberOfPhaseEncodingSteps": 64,
      "PercentPhaseFieldOfView": 100.0,
      "PercentSampling": 100.0,
      "PerformedProcedureStepStartTime": "141437.640000",
      "PhotometricInterpretation": "MONOCHROME2",
      "PixelBandwidth": 2520.0,
      "PixelRepresentation": 0,
      "PixelSpacing": [3.125, 3.125],
      "ProtocolName": "ge_func_3x3x4_164",
      "RepetitionTime": 2000.0,
      "Rows": 384,
      "SAR": 0.12527252320426,
      "SamplesPerPixel": 1,
      "ScanOptions": "FS",
      "ScanningSequence": "EP",
      "SequenceName": "*epfid2d1_64",
      "SequenceVariant": "SK",
      "SeriesDescription": "ge_func_3x3x4_164",
      "SeriesNumber": 3,
      "SeriesTime": "143439.000000",
      "SliceLocation": -68.202407836914,
      "SliceThickness": 4.0,
      "SmallestImagePixelValue": 0,
      "SoftwareVersions": "syngo MR B17",
      "SpacingBetweenSlices": 4.5999999046326,
      "SpecificCharacterSet": "ISO_IR 100",
      "StudyID": "1",
      "StudyTime": "141437.593000",
      "TransmitCoilName": "Body",
      "VariableFlipAngleFlag": "N",
      "WindowCenterWidthExplanation": "Algo1",
      "dBdt": 0.0},
    "slices": {}
  },
  "time": {
    "samples": {
      "AcquisitionNumber": [1, 2, 3, 4, 5, 6, 7, 8, 9, 10, 11, 12, 13, 14, 15, 16, 17, 18, 19, 20, 21, 22, 23, 24, 25, 26, 27, 28, 29, 30, 31, 32, 33, 34, 35, 36, 37, 38, 39, 40, 41, 42, 43, 44, 45, 46, 47, 48, 49, 50, 51, 52, 53, 54, 55, 56, 57, 58, 59, 60, 61, 62, 63, 64, 65, 66, 67, 68, 69, 70, 71, 72, 73, 74, 75, 76, 77, 78, 79, 80, 81, 82, 83, 84, 85, 86, 87, 88, 89, 90, 91, 92, 93, 94, 95, 96, 97, 98, 99, 100, 101, 102, 103, 104, 105, 106, 107, 108, 109, 110, 111, 112, 113, 114, 115, 116, 117, 118, 119, 120, 121, 122, 123, 124, 125, 126, 127, 128, 129, 130, 131, 132, 133, 134, 135, 136, 137, 138, 139, 140, 141, 142, 143, 144, 145, 146, 147, 148, 149, 150, 151, 152, 153, 154, 155, 156, 157, 158, 159, 160, 161, 162, 163, 164],
      "AcquisitionTime": ["143346.005000", "143348.012500", "143350.020000", "143352.030000", "143354.037500", "143356.045000", "143358.052500", "143400.060000", "143402.070000", "143404.077500", "143406.085000", "143408.092500", "143410.102500", "143412.110000", "143414.117500", "143416.125000", "143418.132500", "143420.142500", "143422.150000", "143424.157500", "143426.165000", "143428.172500", "143430.182500", "143432.190000", "143434.197500", "143436.205000", "143438.215000", "143440.222500", "143442.230000", "143444.237500", "143446.245000", "143448.255000", "143450.262500", "143452.270000", "143454.277500", "143456.285000", "143458.295000", "143500.302500", "143502.310000", "143504.317500", "143506.325000", "143508.335000", "143510.342500", "143512.350000", "143514.357500", "143516.367500", "143518.375000", "143520.382500", "143522.390000", "143524.397500", "143526.407500", "143528.415000", "143530.422500", "143532.430000", "143534.437500", "143536.447500", "143538.455000", "143540.462500", "143542.470000", "143544.480000", "143546.487500", "143548.495000", "143550.502500", "143552.510000", "143554.520000", "143556.527500", "143558.535000", "143600.542500", "143602.550000", "143604.560000", "143606.567500", "143608.575000", "143610.582500", "143612.592500", "143614.600000", "143616.607500", "143618.615000", "143620.622500", "143622.632500", "143624.640000", "143626.647500", "143628.655000", "143630.662500", "143632.672500", "143634.680000", "143636.687500", "143638.695000", "143640.702500", "143642.712500", "143644.720000", "143646.727500", "143648.735000", "143650.745000", "143652.752500", "143654.760000", "143656.767500", "143658.775000", "143700.785000", "143702.792500", "143704.800000", "143706.807500", "143708.815000", "143710.825000", "143712.832500", "143714.840000", "143716.847500", "143718.857500", "143720.865000", "143722.872500", "143724.880000", "143726.887500", "143728.897500", "143730.905000", "143732.912500", "143734.920000", "143736.927500", "143738.937500", "143740.945000", "143742.952500", "143744.960000", "143746.970000", "143748.977500", "143750.985000", "143752.992500", "143755.000000", "143757.010000", "143759.017500", "143801.025000", "143803.032500", "143805.040000", "143807.050000", "143809.057500", "143811.065000", "143813.072500", "143815.080000", "143817.090000", "143819.097500", "143821.105000", "143823.112500", "143825.122500", "143827.130000", "143829.137500", "143831.145000", "143833.152500", "143835.162500", "143837.170000", "143839.177500", "143841.185000", "143843.192500", "143845.202500", "143847.210000", "143849.217500", "143851.225000", "143853.235000", "143855.242500", "143857.250000", "143859.257500", "143901.265000", "143903.275000", "143905.282500", "143907.290000", "143909.297500", "143911.305000", "143913.315000"],
      "ContentTime": ["143439.015000", "143439.015000", "143439.015000", "143439.015000", "143439.015000", "143439.015000", "143439.031000", "143439.031000", "143439.031000", "143439.031000", "143439.031000", "143439.031000", "143439.031000", "143439.031000", "143439.046000", "143439.046000", "143439.046000", "143439.046000", "143439.046000", "143439.046000", "143439.062000", "143439.062000", "143439.062000", "143439.062000", "143439.062000", "143439.062000", "143519.000000", "143519.000000", "143519.015000", "143519.015000", "143519.015000", "143519.015000", "143519.015000", "143519.015000", "143519.015000", "143519.031000", "143519.031000", "143519.031000", "143519.031000", "143519.031000", "143519.031000", "143519.031000", "143519.031000", "143519.046000", "143519.046000", "143519.046000", "143559.000000", "143559.015000", "143559.015000", "143559.015000", "143559.015000", "143559.015000", "143559.015000", "143559.031000", "143559.031000", "143559.031000", "143559.046000", "143559.046000", "143559.046000", "143559.046000", "143559.046000", "143559.062000", "143559.062000", "143559.062000", "143559.062000", "143559.062000", "143639.000000", "143639.000000", "143639.015000", "143639.031000", "143639.031000", "143639.031000", "143639.031000", "143639.031000", "143639.031000", "143639.031000", "143639.031000", "143639.046000", "143639.046000", "143639.046000", "143639.046000", "143639.046000", "143639.046000", "143639.046000", "143639.062000", "143639.062000", "143719.000000", "143719.015000", "143719.015000", "143719.015000", "143719.015000", "143719.015000", "143719.015000", "143719.015000", "143719.031000", "143719.031000", "143719.031000", "143719.031000", "143719.031000", "143719.046000", "143719.046000", "143719.046000", "143719.046000", "143719.046000", "143719.046000", "143719.062000", "143759.000000", "143759.000000", "143759.015000", "143759.015000", "143759.015000", "143759.015000", "143759.015000", "143759.015000", "143759.015000", "143759.015000", "143759.031000", "143759.031000", "143759.031000", "143759.031000", "143759.031000", "143759.031000", "143759.031000", "143759.031000", "143759.046000", "143759.046000", "143839.000000", "143839.000000", "143839.015000", "143839.015000", "143839.015000", "143839.015000", "143839.015000", "143839.031000", "143839.031000", "143839.031000", "143839.031000", "143839.031000", "143839.031000", "143839.031000", "143839.031000", "143839.046000", "143839.046000", "143839.046000", "143839.046000", "143839.046000", "143859.000000", "143859.015000", "143859.015000", "143859.015000", "143859.031000", "143859.031000", "143859.031000", "143859.031000", "143859.031000", "143859.031000", "143914.625000", "143914.625000", "143914.625000", "143914.625000", "143914.625000", "143914.625000", "143914.625000", "143914.640000"],
      "InstanceCreationTime": ["143439.015000", "143439.015000", "143439.015000", "143439.015000", "143439.015000", "143439.015000", "143439.031000", "143439.031000", "143439.031000", "143439.031000", "143439.031000", "143439.031000", "143439.031000", "143439.031000", "143439.046000", "143439.046000", "143439.046000", "143439.046000", "143439.046000", "143439.046000", "143439.062000", "143439.062000", "143439.062000", "143439.062000", "143439.062000", "143439.062000", "143519.000000", "143519.000000", "143519.015000", "143519.015000", "143519.015000", "143519.015000", "143519.015000", "143519.015000", "143519.015000", "143519.031000", "143519.031000", "143519.031000", "143519.031000", "143519.031000", "143519.031000", "143519.031000", "143519.031000", "143519.046000", "143519.046000", "143519.046000", "143559.000000", "143559.015000", "143559.015000", "143559.015000", "143559.015000", "143559.015000", "143559.015000", "143559.031000", "143559.031000", "143559.031000", "143559.046000", "143559.046000", "143559.046000", "143559.046000", "143559.046000", "143559.062000", "143559.062000", "143559.062000", "143559.062000", "143559.062000", "143639.000000", "143639.000000", "143639.015000", "143639.031000", "143639.031000", "143639.031000", "143639.031000", "143639.031000", "143639.031000", "143639.031000", "143639.031000", "143639.046000", "143639.046000", "143639.046000", "143639.046000", "143639.046000", "143639.046000", "143639.046000", "143639.062000", "143639.062000", "143719.000000", "143719.015000", "143719.015000", "143719.015000", "143719.015000", "143719.015000", "143719.015000", "143719.015000", "143719.031000", "143719.031000", "143719.031000", "143719.031000", "143719.031000", "143719.046000", "143719.046000", "143719.046000", "143719.046000", "143719.046000", "143719.046000", "143719.062000", "143759.000000", "143759.000000", "143759.015000", "143759.015000", "143759.015000", "143759.015000", "143759.015000", "143759.015000", "143759.015000", "143759.015000", "143759.031000", "143759.031000", "143759.031000", "143759.031000", "143759.031000", "143759.031000", "143759.031000", "143759.031000", "143759.046000", "143759.046000", "143839.000000", "143839.000000", "143839.015000", "143839.015000", "143839.015000", "143839.015000", "143839.015000", "143839.031000", "143839.031000", "143839.031000", "143839.031000", "143839.031000", "143839.031000", "143839.031000", "143839.031000", "143839.046000", "143839.046000", "143839.046000", "143839.046000", "143839.046000", "143859.000000", "143859.015000", "143859.015000", "143859.015000", "143859.031000", "143859.031000", "143859.031000", "143859.031000", "143859.031000", "143859.031000", "143914.625000", "143914.625000", "143914.625000", "143914.625000", "143914.625000", "143914.625000", "143914.625000", "143914.640000"],
      "InstanceNumber": [1, 2, 3, 4, 5, 6, 7, 8, 9, 10, 11, 12, 13, 14, 15, 16, 17, 18, 19, 20, 21, 22, 23, 24, 25, 26, 27, 28, 29, 30, 31, 32, 33, 34, 35, 36, 37, 38, 39, 40, 41, 42, 43, 44, 45, 46, 47, 48, 49, 50, 51, 52, 53, 54, 55, 56, 57, 58, 59, 60, 61, 62, 63, 64, 65, 66, 67, 68, 69, 70, 71, 72, 73, 74, 75, 76, 77, 78, 79, 80, 81, 82, 83, 84, 85, 86, 87, 88, 89, 90, 91, 92, 93, 94, 95, 96, 97, 98, 99, 100, 101, 102, 103, 104, 105, 106, 107, 108, 109, 110, 111, 112, 113, 114, 115, 116, 117, 118, 119, 120, 121, 122, 123, 124, 125, 126, 127, 128, 129, 130, 131, 132, 133, 134, 135, 136, 137, 138, 139, 140, 141, 142, 143, 144, 145, 146, 147, 148, 149, 150, 151, 152, 153, 154, 155, 156, 157, 158, 159, 160, 161, 162, 163, 164],
      "LargestImagePixelValue": [2002, 1929, 1906, 1893, 1894, 1879, 1895, 1902, 1881, 1909, 1886, 1892, 1885, 1871, 1887, 1889, 1914, 1884, 1912, 1893, 1882, 1888, 1851, 1896, 1857, 1851, 1873, 1851, 1840, 1834, 1861, 1858, 1884, 1861, 1868, 1842, 1870, 1859, 1850, 1852, 1848, 1838, 1834, 1838, 1840, 1837, 2259, 1828, 1834, 1849, 1846, 1841, 1852, 1824, 1851, 1841, 1841, 1843, 1857, 1847, 1861, 1844, 1848, 1820, 1820, 1836, 1830, 1832, 1835, 1866, 1834, 1855, 1930, 1869, 1814, 1840, 1823, 1814, 1813, 1810, 1825, 1803, 1795, 1802, 1814, 1809, 1811, 1822, 1811, 1804, 1810, 1813, 1862, 1815, 1879, 1831, 1808, 1833, 1866, 1803, 1816, 1812, 1822, 1822, 1828, 1847, 1813, 1823, 1806, 1838, 1837, 1822, 1834, 1829, 1825, 1846, 1847, 1816, 1829, 1852, 1856, 1833, 2048, 1827, 1827, 1814, 1822, 1814, 1822, 1829, 1820, 1822, 1833, 1820, 1826, 1825, 1926, 1828, 1818, 1814, 1829, 1823, 1819, 1842, 1978, 1819, 1836, 1829, 1833, 1872, 1837, 1825, 1845, 1871, 1818, 1816, 1819, 1820, 1843, 1808, 1822, 1812, 1843, 1828],
      "WindowCenter": [742.0, 741.0, 741.0, 740.0, 739.0, 739.0, 740.0, 739.0, 739.0, 738.0, 738.0, 738.0, 738.0, 737.0, 737.0, 738.0, 738.0, 737.0, 738.0, 738.0, 738.0, 738.0, 737.0, 738.0, 738.0, 737.0, 738.0, 738.0, 737.0, 737.0, 738.0, 738.0, 739.0, 739.0, 738.0, 738.0, 737.0, 739.0, 739.0, 739.0, 738.0, 738.0, 739.0, 739.0, 739.0, 738.0, 739.0, 737.0, 739.0, 739.0, 740.0, 740.0, 739.0, 738.0, 739.0, 739.0, 738.0, 738.0, 739.0, 738.0, 739.0, 740.0, 739.0, 738.0, 738.0, 739.0, 739.0, 739.0, 740.0, 740.0, 739.0, 739.0, 740.0, 738.0, 738.0, 738.0, 738.0, 739.0, 739.0, 739.0, 738.0, 737.0, 738.0, 738.0, 739.0, 738.0, 739.0, 739.0, 739.0, 738.0, 739.0, 739.0, 739.0, 739.0, 740.0, 739.0, 739.0, 740.0, 740.0, 738.0, 739.0, 739.0, 740.0, 740.0, 740.0, 739.0, 739.0, 739.0, 738.0, 740.0, 739.0, 739.0, 739.0, 739.0, 739.0, 739.0, 739.0, 739.0, 740.0, 740.0, 740.0, 740.0, 741.0, 739.0, 740.0, 739.0, 739.0, 739.0, 739.0, 739.0, 740.0, 740.0, 739.0, 740.0, 740.0, 739.0, 740.0, 739.0, 739.0, 739.0, 739.0, 739.0, 739.0, 739.0, 740.0, 740.0, 740.0, 740.0, 740.0, 739.0, 740.0, 741.0, 741.0, 740.0, 740.0, 740.0, 740.0, 739.0, 739.0, 740.0, 739.0, 739.0, 741.0, 741.0],
      "WindowWidth": [1629.0, 1624.0, 1623.0, 1621.0, 1618.0, 1619.0, 1620.0, 1620.0, 1618.0, 1617.0, 1617.0, 1616.0, 1614.0, 1612.0, 1613.0, 1614.0, 1616.0, 1613.0, 1615.0, 1617.0, 1615.0, 1614.0, 1613.0, 1615.0, 1616.0, 1614.0, 1615.0, 1615.0, 1613.0, 1614.0, 1616.0, 1615.0, 1618.0, 1617.0, 1615.0, 1615.0, 1613.0, 1619.0, 1619.0, 1619.0, 1615.0, 1616.0, 1617.0, 1617.0, 1617.0, 1615.0, 1620.0, 1613.0, 1618.0, 1618.0, 1621.0, 1621.0, 1617.0, 1616.0, 1618.0, 1617.0, 1615.0, 1616.0, 1618.0, 1616.0, 1617.0, 1619.0, 1617.0, 1616.0, 1615.0, 1617.0, 1618.0, 1618.0, 1620.0, 1621.0, 1619.0, 1618.0, 1619.0, 1616.0, 1614.0, 1615.0, 1616.0, 1617.0, 1617.0, 1617.0, 1614.0, 1613.0, 1615.0, 1615.0, 1616.0, 1616.0, 1617.0, 1619.0, 1616.0, 1615.0, 1619.0, 1619.0, 1619.0, 1618.0, 1620.0, 1619.0, 1618.0, 1620.0, 1619.0, 1616.0, 1617.0, 1618.0, 1620.0, 1621.0, 1620.0, 1618.0, 1618.0, 1617.0, 1616.0, 1620.0, 1619.0, 1616.0, 1617.0, 1617.0, 1618.0, 1619.0, 1616.0, 1618.0, 1620.0, 1620.0, 1621.0, 1619.0, 1623.0, 1619.0, 1619.0, 1618.0, 1618.0, 1618.0, 1618.0, 1619.0, 1621.0, 1619.0, 1619.0, 1621.0, 1620.0, 1618.0, 1619.0, 1616.0, 1616.0, 1617.0, 1617.0, 1616.0, 1617.0, 1619.0, 1622.0, 1619.0, 1620.0, 1619.0, 1619.0, 1619.0, 1620.0, 1624.0, 1623.0, 1621.0, 1620.0, 1619.0, 1619.0, 1618.0, 1618.0, 1619.0, 1616.0, 1618.0, 1622.0, 1624.0]
    },
    "slices": {}
  }
}