{
  "AcquisitionMatrixPE": 64,
  "AcquisitionNumber": 1,
  "AcquisitionTime": "14:27:5.495000",
  "BandwidthPerPixelPhaseEncode": 33.967,
  "BaseResolution": 64,
  "CoilCombinationMethod": "Sum of Squares",
  "CoilString": "C:HEA;HEP",
  "ConversionSoftware": "dcm2niix",
  "ConversionSoftwareVersion": "v1.0.20220720",
  "DerivedVendorReportedEchoSpacing": 0.000460005,
  "DeviceSerialNumber": "35193",
  "DwellTime": 3.1e-06,
  "EchoTime": 0.03,
  "EffectiveEchoSpacing": 0.000460005,
  "FlipAngle": 90,
  "HeudiconvVersion": "1.1.6",
  "ImageOrientationPatientDICOM": [1, 0, 0, 0, 1, 0],
  "ImageOrientationText": "Tra",
  "ImageType": [
    "ORIGINAL",
    "PRIMARY",
    "M",
    "ND",
    "MOSAIC"
],
  "ImagingFrequency": 123.254,
  "InPlanePhaseEncodingDirectionDICOM": "COL",
  "InstitutionAddress": "Xinjiekouwai Street No 19,Beijing,Haidian District,CN,100875",
  "InstitutionName": "Beijing Normal Universtiy/4C3F54/",
  "InstitutionalDepartmentName": "Department",
  "MRAcquisitionType": "2D",
  "MagneticFieldStrength": 3,
  "Manufacturer": "Siemens",
  "ManufacturersModelName": "TrioTim",
  "MatrixCoilMode": "SENSE",
  "Modality": "MR",
  "NonlinearGradientCorrection": false,
  "PartialFourier": 1,
  "PatientPosition": "HFS",
  "PercentPhaseFOV": 100,
  "PercentSampling": 100,
  "PhaseEncodingDirection": "j-",
  "PhaseEncodingSteps": 64,
  "PhaseResolution": 1,
  "PixelBandwidth": 2520,
  "ProcedureStepDescription": "BNU_cst_2015^Guo.TaoMei",
  "ProtocolName": "ge_func_3x3x4_164",
  "PulseSequenceDetails": "%SiemensSeq%\\ep2d_bold",
  "ReceiveCoilName": "HeadMatrix",
  "ReconMatrixPE": 64,
  "RepetitionTime": 2,
  "SAR": 0.125273,
  "ScanOptions": "FS",
  "ScanningSequence": "EP",
  "SequenceName": "*epfid2d1_64",
  "SequenceVariant": "SK",
  "SeriesDescription": "ge_func_3x3x4_164",
  "SeriesNumber": 2,
  "ShimSetting": [-4480, -19412, -9911, 1007, -175, -320, -99, -87],
  "SliceThickness": 4,
  "SliceTiming": [0, 1.035, 0.06, 1.095, 0.1225, 1.155, 0.1825, 1.2175, 0.2425, 1.2775, 0.305, 1.3375, 0.365, 1.4, 0.425, 1.46, 0.4875, 1.52, 0.5475, 1.5825, 0.6075, 1.6425, 0.67, 1.7025, 0.73, 1.765, 0.79, 1.825, 0.8525, 1.885, 0.9125, 1.9475, 0.9725],
  "SoftwareVersions": "syngo MR B17",
  "SpacingBetweenSlices": 4.6,
  "StationName": "MRC35193",
  "TaskName": "LanguageControl",
  "TotalReadoutTime": 0.0289803,
  "TxRefAmp": 330.52,
  "dcmmeta_affine": [
    [-3.125, 0.0, 0.0, 111.46987915039062],
    [0.0, 3.125, 0.0, -84.73042297363281],
    [0.0, 0.0, 4.599999904632568, -68.20240783691406],
    [0.0, 0.0, 0.0, 1.0]
],
  "dcmmeta_reorient_transform": [
    [0.0, -1.0, 0.0, 63.0],
    [1.0, 0.0, 0.0, 0.0],
    [0.0, 0.0, 1.0, 0.0],
    [0.0, 0.0, 0.0, 1.0]
],
  "dcmmeta_shape": [64, 64, 33, 164],
  "dcmmeta_slice_dim": 2,
  "dcmmeta_version": 0.6,
  "global": {
    "const": {
      "AcquisitionMatrix": [64, 0, 0, 64],
      "AngioFlag": "N",
      "BitsAllocated": 16,
      "BitsStored": 12,
      "Columns": 384,
      "EchoNumbers": 1,
      "EchoTime": 30.0,
      "EchoTrainLength": 1,
      "FlipAngle": 90.0,
      "HighBit": 11,
      "ImageOrientationPatient": [1.0, 0.0, 0.0, 0.0, 1.0, 0.0],
      "ImagePositionPatient": [-611.46987915039, -612.14457798004, -68.202407836914],
      "ImageType": [
        "ORIGINAL",
        "PRIMARY",
        "M",
        "ND",
        "MOSAIC"
],
      "ImagedNucleus": "1H",
      "ImagingFrequency": 123.253694,
      "InPlanePhaseEncodingDirection": "COL",
      "MRAcquisitionType": "2D",
      "MagneticFieldStrength": 3.0,
      "Manufacturer": "SIEMENS",
      "ManufacturerModelName": "TrioTim",
      "Modality": "MR",
      "NumberOfAverages": 1.0,
      "NumberOfPhaseEncodingSteps": 64,
      "PercentPhaseFieldOfView": 100.0,
      "PercentSampling": 100.0,
      "PerformedProcedureStepStartTime": "141437.640000",
      "PhotometricInterpretation": "MONOCHROME2",
      "PixelBandwidth": 2520.0,
      "PixelRepresentation": 0,
      "PixelSpacing": [3.125, 3.125],
      "ProtocolName": "ge_func_3x3x4_164",
      "RepetitionTime": 2000.0,
      "Rows": 384,
      "SAR": 0.12527252320426,
      "SamplesPerPixel": 1,
      "ScanOptions": "FS",
      "ScanningSequence": "EP",
      "SequenceName": "*epfid2d1_64",
      "SequenceVariant": "SK",
      "SeriesDescription": "ge_func_3x3x4_164",
      "SeriesNumber": 2,
      "SeriesTime": "142804.078000",
      "SliceLocation": -68.202407836914,
      "SliceThickness": 4.0,
      "SmallestImagePixelValue": 0,
      "SoftwareVersions": "syngo MR B17",
      "SpacingBetweenSlices": 4.5999999046326,
      "SpecificCharacterSet": "ISO_IR 100",
      "StudyID": "1",
      "StudyTime": "141437.593000",
      "TransmitCoilName": "Body",
      "VariableFlipAngleFlag": "N",
      "WindowCenterWidthExplanation": "Algo1",
      "dBdt": 0.0},
    "slices": {}
  },
  "time": {
    "samples": {
      "AcquisitionNumber": [1, 2, 3, 4, 5, 6, 7, 8, 9, 10, 11, 12, 13, 14, 15, 16, 17, 18, 19, 20, 21, 22, 23, 24, 25, 26, 27, 28, 29, 30, 31, 32, 33, 34, 35, 36, 37, 38, 39, 40, 41, 42, 43, 44, 45, 46, 47, 48, 49, 50, 51, 52, 53, 54, 55, 56, 57, 58, 59, 60, 61, 62, 63, 64, 65, 66, 67, 68, 69, 70, 71, 72, 73, 74, 75, 76, 77, 78, 79, 80, 81, 82, 83, 84, 85, 86, 87, 88, 89, 90, 91, 92, 93, 94, 95, 96, 97, 98, 99, 100, 101, 102, 103, 104, 105, 106, 107, 108, 109, 110, 111, 112, 113, 114, 115, 116, 117, 118, 119, 120, 121, 122, 123, 124, 125, 126, 127, 128, 129, 130, 131, 132, 133, 134, 135, 136, 137, 138, 139, 140, 141, 142, 143, 144, 145, 146, 147, 148, 149, 150, 151, 152, 153, 154, 155, 156, 157, 158, 159, 160, 161, 162, 163, 164],
      "AcquisitionTime": ["142705.495000", "142707.502500", "142709.512500", "142711.520000", "142713.527500", "142715.535000", "142717.542500", "142719.552500", "142721.560000", "142723.567500", "142725.575000", "142727.582500", "142729.592500", "142731.600000", "142733.607500", "142735.615000", "142737.622500", "142739.632500", "142741.640000", "142743.647500", "142745.655000", "142747.665000", "142749.672500", "142751.680000", "142753.687500", "142755.695000", "142757.705000", "142759.712500", "142801.720000", "142803.727500", "142805.735000", "142807.745000", "142809.752500", "142811.760000", "142813.767500", "142815.777500", "142817.785000", "142819.792500", "142821.800000", "142823.807500", "142825.817500", "142827.825000", "142829.832500", "142831.840000", "142833.847500", "142835.857500", "142837.865000", "142839.872500", "142841.880000", "142843.890000", "142845.897500", "142847.905000", "142849.912500", "142851.920000", "142853.930000", "142855.937500", "142857.945000", "142859.952500", "142901.960000", "142903.970000", "142905.977500", "142907.985000", "142909.992500", "142912.000000", "142914.010000", "142916.017500", "142918.025000", "142920.032500", "142922.042500", "142924.050000", "142926.057500", "142928.065000", "142930.072500", "142932.082500", "142934.090000", "142936.097500", "142938.105000", "142940.112500", "142942.122500", "142944.130000", "142946.137500", "142948.145000", "142950.155000", "142952.162500", "142954.170000", "142956.177500", "142958.185000", "143000.195000", "143002.202500", "143004.210000", "143006.217500", "143008.225000", "143010.235000", "143012.242500", "143014.250000", "143016.257500", "143018.267500", "143020.275000", "143022.282500", "143024.290000", "143026.297500", "143028.307500", "143030.315000", "143032.322500", "143034.330000", "143036.337500", "143038.347500", "143040.355000", "143042.362500", "143044.370000", "143046.377500", "143048.387500", "143050.395000", "143052.402500", "143054.410000", "143056.420000", "143058.427500", "143100.435000", "143102.442500", "143104.450000", "143106.460000", "143108.467500", "143110.475000", "143112.482500", "143114.490000", "143116.500000", "143118.507500", "143120.515000", "143122.522500", "143124.532500", "143126.540000", "143128.547500", "143130.555000", "143132.562500", "143134.572500", "143136.580000", "143138.587500", "143140.595000", "143142.602500", "143144.612500", "143146.620000", "143148.627500", "143150.635000", "143152.645000", "143154.652500", "143156.660000", "143158.667500", "143200.675000", "143202.685000", "143204.692500", "143206.700000", "143208.707500", "143210.715000", "143212.725000", "143214.732500", "143216.740000", "143218.747500", "143220.755000", "143222.765000", "143224.772500", "143226.780000", "143228.787500", "143230.797500", "143232.805000"],
      "ContentTime": ["142804.093000", "142804.093000", "142804.093000", "142804.093000", "142804.093000", "142804.093000", "142804.093000", "142804.109000", "142804.109000", "142804.109000", "142804.109000", "142804.109000", "142804.109000", "142804.109000", "142804.125000", "142804.125000", "142804.125000", "142804.125000", "142804.125000", "142804.125000", "142804.125000", "142804.140000", "142804.140000", "142804.140000", "142804.140000", "142804.140000", "142804.156000", "142804.156000", "142844.078000", "142844.093000", "142844.093000", "142844.093000", "142844.093000", "142844.093000", "142844.093000", "142844.109000", "142844.109000", "142844.109000", "142844.109000", "142844.109000", "142844.109000", "142844.109000", "142844.109000", "142844.109000", "142844.125000", "142844.125000", "142844.125000", "142844.125000", "142904.078000", "142904.078000", "142904.093000", "142904.093000", "142904.093000", "142904.093000", "142904.093000", "142904.093000", "142904.093000", "142904.093000", "142944.078000", "142944.093000", "142944.093000", "142944.093000", "142944.093000", "142944.093000", "142944.109000", "142944.109000", "142944.109000", "142944.109000", "142944.109000", "142944.125000", "142944.125000", "142944.125000", "142944.125000", "142944.125000", "142944.140000", "142944.140000", "142944.140000", "142944.140000", "143024.078000", "143024.078000", "143024.093000", "143024.093000", "143024.093000", "143024.093000", "143024.093000", "143024.109000", "143024.109000", "143024.109000", "143024.109000", "143024.109000", "143024.109000", "143024.125000", "143024.125000", "143024.125000", "143024.125000", "143024.140000", "143024.140000", "143024.140000", "143104.078000", "143104.078000", "143104.093000", "143104.093000", "143104.093000", "143104.093000", "143104.093000", "143104.093000", "143104.093000", "143104.093000", "143104.093000", "143104.109000", "143104.109000", "143104.109000", "143104.125000", "143104.125000", "143104.125000", "143104.125000", "143104.125000", "143104.125000", "143144.078000", "143144.078000", "143144.093000", "143144.093000", "143144.093000", "143144.093000", "143144.093000", "143144.093000", "143144.109000", "143144.109000", "143144.109000", "143144.109000", "143144.109000", "143144.109000", "143144.109000", "143144.109000", "143144.125000", "143144.125000", "143144.125000", "143144.125000", "143224.078000", "143224.093000", "143224.093000", "143224.093000", "143224.093000", "143224.093000", "143224.093000", "143224.093000", "143224.093000", "143224.109000", "143224.109000", "143224.109000", "143224.109000", "143224.109000", "143224.109000", "143224.109000", "143224.109000", "143224.125000", "143224.125000", "143224.125000", "143234.234000", "143234.234000", "143234.234000", "143234.234000", "143234.250000", "143234.250000"],
      "InstanceCreationTime": ["142804.093000", "142804.093000", "142804.093000", "142804.093000", "142804.093000", "142804.093000", "142804.093000", "142804.109000", "142804.109000", "142804.109000", "142804.109000", "142804.109000", "142804.109000", "142804.109000", "142804.125000", "142804.125000", "142804.125000", "142804.125000", "142804.125000", "142804.125000", "142804.125000", "142804.140000", "142804.140000", "142804.140000", "142804.140000", "142804.140000", "142804.156000", "142804.156000", "142844.078000", "142844.093000", "142844.093000", "142844.093000", "142844.093000", "142844.093000", "142844.093000", "142844.109000", "142844.109000", "142844.109000", "142844.109000", "142844.109000", "142844.109000", "142844.109000", "142844.109000", "142844.109000", "142844.125000", "142844.125000", "142844.125000", "142844.125000", "142904.078000", "142904.078000", "142904.093000", "142904.093000", "142904.093000", "142904.093000", "142904.093000", "142904.093000", "142904.093000", "142904.093000", "142944.078000", "142944.093000", "142944.093000", "142944.093000", "142944.093000", "142944.093000", "142944.109000", "142944.109000", "142944.109000", "142944.109000", "142944.109000", "142944.125000", "142944.125000", "142944.125000", "142944.125000", "142944.125000", "142944.140000", "142944.140000", "142944.140000", "142944.140000", "143024.078000", "143024.078000", "143024.093000", "143024.093000", "143024.093000", "143024.093000", "143024.093000", "143024.109000", "143024.109000", "143024.109000", "143024.109000", "143024.109000", "143024.109000", "143024.125000", "143024.125000", "143024.125000", "143024.125000", "143024.140000", "143024.140000", "143024.140000", "143104.078000", "143104.078000", "143104.093000", "143104.093000", "143104.093000", "143104.093000", "143104.093000", "143104.093000", "143104.093000", "143104.093000", "143104.093000", "143104.109000", "143104.109000", "143104.109000", "143104.125000", "143104.125000", "143104.125000", "143104.125000", "143104.125000", "143104.125000", "143144.078000", "143144.078000", "143144.093000", "143144.093000", "143144.093000", "143144.093000", "143144.093000", "143144.093000", "143144.109000", "143144.109000", "143144.109000", "143144.109000", "143144.109000", "143144.109000", "143144.109000", "143144.109000", "143144.125000", "143144.125000", "143144.125000", "143144.125000", "143224.078000", "143224.093000", "143224.093000", "143224.093000", "143224.093000", "143224.093000", "143224.093000", "143224.093000", "143224.093000", "143224.109000", "143224.109000", "143224.109000", "143224.109000", "143224.109000", "143224.109000", "143224.109000", "143224.109000", "143224.125000", "143224.125000", "143224.125000", "143234.234000", "143234.234000", "143234.234000", "143234.234000", "143234.250000", "143234.250000"],
      "InstanceNumber": [1, 2, 3, 4, 5, 6, 7, 8, 9, 10, 11, 12, 13, 14, 15, 16, 17, 18, 19, 20, 21, 22, 23, 24, 25, 26, 27, 28, 29, 30, 31, 32, 33, 34, 35, 36, 37, 38, 39, 40, 41, 42, 43, 44, 45, 46, 47, 48, 49, 50, 51, 52, 53, 54, 55, 56, 57, 58, 59, 60, 61, 62, 63, 64, 65, 66, 67, 68, 69, 70, 71, 72, 73, 74, 75, 76, 77, 78, 79, 80, 81, 82, 83, 84, 85, 86, 87, 88, 89, 90, 91, 92, 93, 94, 95, 96, 97, 98, 99, 100, 101, 102, 103, 104, 105, 106, 107, 108, 109, 110, 111, 112, 113, 114, 115, 116, 117, 118, 119, 120, 121, 122, 123, 124, 125, 126, 127, 128, 129, 130, 131, 132, 133, 134, 135, 136, 137, 138, 139, 140, 141, 142, 143, 144, 145, 146, 147, 148, 149, 150, 151, 152, 153, 154, 155, 156, 157, 158, 159, 160, 161, 162, 163, 164],
      "LargestImagePixelValue": [1943, 1894, 1857, 1868, 1879, 1893, 1870, 1875, 1858, 1879, 1869, 1851, 1883, 1852, 1892, 1908, 1909, 1878, 1884, 1913, 1898, 1890, 1899, 1912, 1903, 1881, 1887, 1919, 1888, 1892, 1897, 1934, 1887, 1905, 1902, 1881, 1914, 1871, 1922, 1878, 1891, 1913, 1873, 1908, 1882, 1900, 1876, 1910, 1898, 1910, 1873, 1873, 1909, 1889, 1894, 1860, 1854, 1980, 1869, 1889, 1871, 1891, 2023, 1905, 1860, 1900, 1891, 1900, 1918, 1903, 1896, 1920, 1907, 1914, 1915, 1910, 1942, 1914, 1912, 1919, 1926, 1937, 1918, 1918, 1927, 1909, 1934, 1945, 1934, 1939, 1927, 1948, 1937, 1927, 1942, 1918, 1917, 1909, 1928, 1931, 1930, 1927, 1912, 1925, 1922, 1927, 1916, 1928, 1920, 1932, 1913, 1949, 1922, 1915, 1936, 1921, 1935, 1924, 1918, 1915, 1907, 1920, 1893, 1918, 1911, 1922, 1931, 1916, 1929, 1930, 1904, 1926, 1921, 1919, 1927, 1926, 1906, 1913, 1924, 1914, 1905, 1895, 1915, 1900, 1905, 1907, 1920, 1904, 1910, 1931, 1917, 1912, 1907, 1901, 1907, 1892, 1886, 1894, 1898, 1887, 1890, 1886, 1868, 1915],
      "WindowCenter": [739.0, 737.0, 737.0, 737.0, 737.0, 736.0, 736.0, 736.0, 736.0, 736.0, 735.0, 736.0, 736.0, 736.0, 736.0, 736.0, 736.0, 736.0, 736.0, 736.0, 737.0, 737.0, 737.0, 737.0, 737.0, 737.0, 737.0, 736.0, 736.0, 736.0, 736.0, 737.0, 737.0, 737.0, 737.0, 737.0, 738.0, 737.0, 737.0, 737.0, 737.0, 736.0, 737.0, 738.0, 737.0, 737.0, 737.0, 737.0, 735.0, 735.0, 735.0, 737.0, 739.0, 737.0, 738.0, 738.0, 738.0, 737.0, 737.0, 736.0, 736.0, 736.0, 737.0, 737.0, 736.0, 737.0, 736.0, 736.0, 737.0, 737.0, 737.0, 738.0, 738.0, 738.0, 737.0, 737.0, 737.0, 737.0, 737.0, 737.0, 738.0, 738.0, 738.0, 737.0, 737.0, 737.0, 736.0, 735.0, 737.0, 739.0, 738.0, 737.0, 738.0, 737.0, 737.0, 737.0, 737.0, 737.0, 738.0, 739.0, 739.0, 739.0, 738.0, 738.0, 738.0, 737.0, 737.0, 738.0, 738.0, 737.0, 737.0, 738.0, 737.0, 737.0, 738.0, 738.0, 738.0, 737.0, 737.0, 737.0, 738.0, 738.0, 737.0, 738.0, 737.0, 737.0, 738.0, 739.0, 738.0, 738.0, 737.0, 737.0, 738.0, 737.0, 738.0, 738.0, 737.0, 737.0, 737.0, 737.0, 737.0, 736.0, 736.0, 737.0, 738.0, 738.0, 738.0, 738.0, 738.0, 738.0, 738.0, 738.0, 738.0, 737.0, 739.0, 738.0, 737.0, 737.0, 738.0, 739.0, 739.0, 738.0, 739.0, 740.0],
      "WindowWidth": [1621.0, 1615.0, 1615.0, 1614.0, 1613.0, 1612.0, 1611.0, 1611.0, 1609.0, 1612.0, 1608.0, 1610.0, 1610.0, 1610.0, 1611.0, 1609.0, 1610.0, 1610.0, 1609.0, 1611.0, 1613.0, 1613.0, 1614.0, 1614.0, 1614.0, 1613.0, 1613.0, 1612.0, 1609.0, 1610.0, 1611.0, 1614.0, 1613.0, 1614.0, 1614.0, 1614.0, 1615.0, 1613.0, 1615.0, 1613.0, 1613.0, 1609.0, 1612.0, 1616.0, 1614.0, 1613.0, 1612.0, 1613.0, 1608.0, 1609.0, 1608.0, 1614.0, 1618.0, 1614.0, 1617.0, 1615.0, 1615.0, 1614.0, 1611.0, 1610.0, 1610.0, 1611.0, 1612.0, 1612.0, 1611.0, 1613.0, 1610.0, 1610.0, 1613.0, 1612.0, 1615.0, 1616.0, 1615.0, 1615.0, 1613.0, 1613.0, 1614.0, 1613.0, 1614.0, 1614.0, 1616.0, 1616.0, 1616.0, 1613.0, 1612.0, 1611.0, 1611.0, 1609.0, 1614.0, 1618.0, 1614.0, 1614.0, 1614.0, 1613.0, 1613.0, 1613.0, 1614.0, 1614.0, 1615.0, 1617.0, 1618.0, 1618.0, 1617.0, 1615.0, 1615.0, 1613.0, 1612.0, 1614.0, 1614.0, 1614.0, 1614.0, 1615.0, 1613.0, 1612.0, 1614.0, 1614.0, 1615.0, 1612.0, 1612.0, 1614.0, 1614.0, 1614.0, 1614.0, 1617.0, 1613.0, 1611.0, 1616.0, 1620.0, 1616.0, 1615.0, 1614.0, 1614.0, 1616.0, 1613.0, 1614.0, 1615.0, 1613.0, 1612.0, 1614.0, 1614.0, 1613.0, 1610.0, 1610.0, 1613.0, 1616.0, 1616.0, 1616.0, 1614.0, 1615.0, 1616.0, 1614.0, 1615.0, 1616.0, 1613.0, 1617.0, 1615.0, 1611.0, 1613.0, 1617.0, 1619.0, 1618.0, 1616.0, 1616.0, 1621.0]
    },
    "slices": {}
  }
}