{
  "AcquisitionMatrixPE": 64,
  "AcquisitionNumber": 1,
  "AcquisitionTime": "14:27:39.417500",
  "BandwidthPerPixelPhaseEncode": 33.967,
  "BaseResolution": 64,
  "CoilCombinationMethod": "Sum of Squares",
  "CoilString": "C:HEA;HEP",
  "ConversionSoftware": "dcm2niix",
  "ConversionSoftwareVersion": "v1.0.20220720",
  "DerivedVendorReportedEchoSpacing": 0.000460005,
  "DeviceSerialNumber": "35193",
  "DwellTime": 3.1e-06,
  "EchoTime": 0.03,
  "EffectiveEchoSpacing": 0.000460005,
  "FlipAngle": 90,
  "HeudiconvVersion": "1.1.6",
  "ImageOrientationPatientDICOM": [1, 0, 0, 0, 1, 0],
  "ImageOrientationText": "Tra",
  "ImageType": [
    "ORIGINAL",
    "PRIMARY",
    "M",
    "ND",
    "MOSAIC"
],
  "ImagingFrequency": 123.254,
  "InPlanePhaseEncodingDirectionDICOM": "COL",
  "InstitutionAddress": "Xinjiekouwai Street No 19,Beijing,Haidian District,CN,100875",
  "InstitutionName": "Beijing Normal Universtiy/2773C4/",
  "InstitutionalDepartmentName": "Department",
  "MRAcquisitionType": "2D",
  "MagneticFieldStrength": 3,
  "Manufacturer": "Siemens",
  "ManufacturersModelName": "TrioTim",
  "MatrixCoilMode": "SENSE",
  "Modality": "MR",
  "NonlinearGradientCorrection": false,
  "PartialFourier": 1,
  "PatientPosition": "HFS",
  "PercentPhaseFOV": 100,
  "PercentSampling": 100,
  "PhaseEncodingDirection": "j-",
  "PhaseEncodingSteps": 64,
  "PhaseResolution": 1,
  "PixelBandwidth": 2520,
  "ProcedureStepDescription": "BNU_cst_2015^Guo.TaoMei",
  "ProtocolName": "ge_func_3x3x4_164",
  "PulseSequenceDetails": "%SiemensSeq%\\ep2d_bold",
  "ReceiveCoilName": "HeadMatrix",
  "ReconMatrixPE": 64,
  "RepetitionTime": 2,
  "SAR": 0.127072,
  "ScanOptions": "FS",
  "ScanningSequence": "EP",
  "SequenceName": "*epfid2d1_64",
  "SequenceVariant": "SK",
  "SeriesDescription": "ge_func_3x3x4_164",
  "SeriesNumber": 2,
  "ShimSetting": [-4519, -19409, -9865, 1251, -73, -238, -82, -141],
  "SliceThickness": 4,
  "SliceTiming": [0, 1.035, 0.0625, 1.095, 0.1225, 1.1575, 0.1825, 1.2175, 0.245, 1.2775, 0.305, 1.34, 0.365, 1.4, 0.4275, 1.46, 0.4875, 1.5225, 0.5475, 1.5825, 0.61, 1.6425, 0.67, 1.705, 0.73, 1.765, 0.7925, 1.825, 0.8525, 1.8875, 0.9125, 1.9475, 0.975],
  "SoftwareVersions": "syngo MR B17",
  "SpacingBetweenSlices": 4.6,
  "StationName": "MRC35193",
  "TaskName": "CognitiveControl",
  "TotalReadoutTime": 0.0289803,
  "TxRefAmp": 337.346,
  "dcmmeta_affine": [
    [-3.125, 0.0, 0.0, 104.0481948852539],
    [0.0, 3.125, 0.0, -83.38102722167969],
    [0.0, 0.0, 4.599999904632568, -55.38313293457031],
    [0.0, 0.0, 0.0, 1.0]
],
  "dcmmeta_reorient_transform": [
    [0.0, -1.0, 0.0, 63.0],
    [1.0, 0.0, 0.0, 0.0],
    [0.0, 0.0, 1.0, 0.0],
    [0.0, 0.0, 0.0, 1.0]
],
  "dcmmeta_shape": [64, 64, 33, 164],
  "dcmmeta_slice_dim": 2,
  "dcmmeta_version": 0.6,
  "global": {
    "const": {
      "AcquisitionMatrix": [64, 0, 0, 64],
      "AngioFlag": "N",
      "BitsAllocated": 16,
      "BitsStored": 12,
      "Columns": 384,
      "EchoNumbers": 1,
      "EchoTime": 30.0,
      "EchoTrainLength": 1,
      "FlipAngle": 90.0,
      "HighBit": 11,
      "ImageOrientationPatient": [1.0, 0.0, 0.0, 0.0, 1.0, 0.0],
      "ImagePositionPatient": [-604.04819297791, -613.49397563934, -55.38313293457],
      "ImageType": [
        "ORIGINAL",
        "PRIMARY",
        "M",
        "ND",
        "MOSAIC"
],
      "ImagedNucleus": "1H",
      "ImagingFrequency": 123.253703,
      "InPlanePhaseEncodingDirection": "COL",
      "MRAcquisitionType": "2D",
      "MagneticFieldStrength": 3.0,
      "Manufacturer": "SIEMENS",
      "ManufacturerModelName": "TrioTim",
      "Modality": "MR",
      "NumberOfAverages": 1.0,
      "NumberOfPhaseEncodingSteps": 64,
      "PercentPhaseFieldOfView": 100.0,
      "PercentSampling": 100.0,
      "PerformedProcedureStepStartTime": "142532.875000",
      "PhotometricInterpretation": "MONOCHROME2",
      "PixelBandwidth": 2520.0,
      "PixelRepresentation": 0,
      "PixelSpacing": [3.125, 3.125],
      "ProtocolName": "ge_func_3x3x4_164",
      "RepetitionTime": 2000.0,
      "Rows": 384,
      "SAR": 0.12707175059986,
      "SamplesPerPixel": 1,
      "ScanOptions": "FS",
      "ScanningSequence": "EP",
      "SequenceName": "*epfid2d1_64",
      "SequenceVariant": "SK",
      "SeriesDescription": "ge_func_3x3x4_164",
      "SeriesNumber": 2,
      "SeriesTime": "142825.250000",
      "SliceLocation": -55.38313293457,
      "SliceThickness": 4.0,
      "SmallestImagePixelValue": 0,
      "SoftwareVersions": "syngo MR B17",
      "SpacingBetweenSlices": 4.5999999046326,
      "SpecificCharacterSet": "ISO_IR 100",
      "StudyID": "1",
      "StudyTime": "142532.828000",
      "TransmitCoilName": "Body",
      "VariableFlipAngleFlag": "N",
      "WindowCenterWidthExplanation": "Algo1",
      "dBdt": 0.0},
    "slices": {}
  },
  "time": {
    "samples": {
      "AcquisitionNumber": [1, 2, 3, 4, 5, 6, 7, 8, 9, 10, 11, 12, 13, 14, 15, 16, 17, 18, 19, 20, 21, 22, 23, 24, 25, 26, 27, 28, 29, 30, 31, 32, 33, 34, 35, 36, 37, 38, 39, 40, 41, 42, 43, 44, 45, 46, 47, 48, 49, 50, 51, 52, 53, 54, 55, 56, 57, 58, 59, 60, 61, 62, 63, 64, 65, 66, 67, 68, 69, 70, 71, 72, 73, 74, 75, 76, 77, 78, 79, 80, 81, 82, 83, 84, 85, 86, 87, 88, 89, 90, 91, 92, 93, 94, 95, 96, 97, 98, 99, 100, 101, 102, 103, 104, 105, 106, 107, 108, 109, 110, 111, 112, 113, 114, 115, 116, 117, 118, 119, 120, 121, 122, 123, 124, 125, 126, 127, 128, 129, 130, 131, 132, 133, 134, 135, 136, 137, 138, 139, 140, 141, 142, 143, 144, 145, 146, 147, 148, 149, 150, 151, 152, 153, 154, 155, 156, 157, 158, 159, 160, 161, 162, 163, 164],
      "AcquisitionTime": ["142739.417500", "142741.427500", "142743.435000", "142745.442500", "142747.450000", "142749.460000", "142751.467500", "142753.475000", "142755.482500", "142757.490000", "142759.500000", "142801.507500", "142803.515000", "142805.522500", "142807.530000", "142809.540000", "142811.547500", "142813.555000", "142815.562500", "142817.572500", "142819.580000", "142821.587500", "142823.595000", "142825.602500", "142827.612500", "142829.620000", "142831.627500", "142833.635000", "142835.642500", "142837.652500", "142839.660000", "142841.667500", "142843.675000", "142845.682500", "142847.692500", "142849.700000", "142851.707500", "142853.715000", "142855.725000", "142857.732500", "142859.740000", "142901.747500", "142903.755000", "142905.765000", "142907.772500", "142909.780000", "142911.787500", "142913.795000", "142915.805000", "142917.812500", "142919.820000", "142921.827500", "142923.837500", "142925.845000", "142927.852500", "142929.860000", "142931.867500", "142933.877500", "142935.885000", "142937.892500", "142939.900000", "142941.907500", "142943.917500", "142945.925000", "142947.932500", "142949.940000", "142951.950000", "142953.957500", "142955.965000", "142957.972500", "142959.980000", "143001.990000", "143003.997500", "143006.005000", "143008.012500", "143010.020000", "143012.030000", "143014.037500", "143016.045000", "143018.052500", "143020.060000", "143022.070000", "143024.077500", "143026.085000", "143028.092500", "143030.102500", "143032.110000", "143034.117500", "143036.125000", "143038.132500", "143040.142500", "143042.150000", "143044.157500", "143046.165000", "143048.172500", "143050.182500", "143052.190000", "143054.197500", "143056.205000", "143058.215000", "143100.222500", "143102.230000", "143104.237500", "143106.245000", "143108.255000", "143110.262500", "143112.270000", "143114.277500", "143116.285000", "143118.295000", "143120.302500", "143122.310000", "143124.317500", "143126.327500", "143128.335000", "143130.342500", "143132.350000", "143134.357500", "143136.367500", "143138.375000", "143140.382500", "143142.390000", "143144.397500", "143146.407500", "143148.415000", "143150.422500", "143152.430000", "143154.437500", "143156.447500", "143158.455000", "143200.462500", "143202.470000", "143204.480000", "143206.487500", "143208.495000", "143210.502500", "143212.510000", "143214.520000", "143216.527500", "143218.535000", "143220.542500", "143222.550000", "143224.560000", "143226.567500", "143228.575000", "143230.582500", "143232.592500", "143234.600000", "143236.607500", "143238.615000", "143240.622500", "143242.632500", "143244.640000", "143246.647500", "143248.655000", "143250.662500", "143252.672500", "143254.680000", "143256.687500", "143258.695000", "143300.705000", "143302.712500", "143304.720000", "143306.727500"],
      "ContentTime": ["142825.250000", "142825.250000", "142825.250000", "142825.250000", "142825.265000", "142825.265000", "142825.265000", "142825.281000", "142825.281000", "142825.281000", "142825.281000", "142825.281000", "142825.281000", "142825.281000", "142825.281000", "142825.296000", "142825.296000", "142825.296000", "142825.296000", "142825.296000", "142825.296000", "142825.296000", "142905.234000", "142905.234000", "142905.234000", "142905.234000", "142905.234000", "142905.234000", "142905.234000", "142905.250000", "142905.250000", "142905.250000", "142905.250000", "142905.250000", "142905.250000", "142905.250000", "142905.250000", "142905.265000", "142905.265000", "142905.265000", "142905.265000", "142905.265000", "142925.234000", "142925.234000", "142925.234000", "142925.234000", "142925.234000", "142925.234000", "142925.234000", "142925.250000", "142925.250000", "142925.250000", "143005.234000", "143005.234000", "143005.234000", "143005.234000", "143005.250000", "143005.250000", "143005.250000", "143005.250000", "143005.250000", "143005.250000", "143005.250000", "143005.250000", "143005.265000", "143005.265000", "143005.265000", "143005.265000", "143005.265000", "143005.265000", "143005.265000", "143005.265000", "143045.234000", "143045.234000", "143045.234000", "143045.234000", "143045.234000", "143045.234000", "143045.234000", "143045.250000", "143045.250000", "143045.250000", "143045.250000", "143045.250000", "143045.250000", "143045.250000", "143045.250000", "143045.265000", "143045.265000", "143045.265000", "143045.265000", "143045.265000", "143125.234000", "143125.234000", "143125.234000", "143125.234000", "143125.250000", "143125.250000", "143125.250000", "143125.250000", "143125.250000", "143125.250000", "143125.250000", "143125.250000", "143125.265000", "143125.265000", "143125.265000", "143125.265000", "143125.265000", "143125.281000", "143125.281000", "143125.281000", "143205.234000", "143205.234000", "143205.234000", "143205.234000", "143205.234000", "143205.234000", "143205.234000", "143205.250000", "143205.250000", "143205.250000", "143205.250000", "143205.250000", "143205.265000", "143205.265000", "143205.265000", "143205.265000", "143205.265000", "143205.265000", "143205.265000", "143205.265000", "143245.234000", "143245.250000", "143245.250000", "143245.250000", "143245.250000", "143245.250000", "143245.265000", "143245.265000", "143245.265000", "143245.281000", "143245.281000", "143245.281000", "143245.281000", "143245.281000", "143245.296000", "143245.296000", "143245.296000", "143245.296000", "143245.296000", "143245.296000", "143308.796000", "143308.796000", "143308.796000", "143308.796000", "143308.812000", "143308.812000", "143308.812000", "143308.812000", "143308.812000", "143308.812000", "143308.812000", "143308.812000"],
      "InstanceCreationTime": ["142825.250000", "142825.250000", "142825.250000", "142825.250000", "142825.265000", "142825.265000", "142825.265000", "142825.281000", "142825.281000", "142825.281000", "142825.281000", "142825.281000", "142825.281000", "142825.281000", "142825.281000", "142825.296000", "142825.296000", "142825.296000", "142825.296000", "142825.296000", "142825.296000", "142825.296000", "142905.234000", "142905.234000", "142905.234000", "142905.234000", "142905.234000", "142905.234000", "142905.234000", "142905.250000", "142905.250000", "142905.250000", "142905.250000", "142905.250000", "142905.250000", "142905.250000", "142905.250000", "142905.265000", "142905.265000", "142905.265000", "142905.265000", "142905.265000", "142925.234000", "142925.234000", "142925.234000", "142925.234000", "142925.234000", "142925.234000", "142925.234000", "142925.250000", "142925.250000", "142925.250000", "143005.234000", "143005.234000", "143005.234000", "143005.234000", "143005.250000", "143005.250000", "143005.250000", "143005.250000", "143005.250000", "143005.250000", "143005.250000", "143005.250000", "143005.265000", "143005.265000", "143005.265000", "143005.265000", "143005.265000", "143005.265000", "143005.265000", "143005.265000", "143045.234000", "143045.234000", "143045.234000", "143045.234000", "143045.234000", "143045.234000", "143045.234000", "143045.250000", "143045.250000", "143045.250000", "143045.250000", "143045.250000", "143045.250000", "143045.250000", "143045.250000", "143045.265000", "143045.265000", "143045.265000", "143045.265000", "143045.265000", "143125.234000", "143125.234000", "143125.234000", "143125.234000", "143125.250000", "143125.250000", "143125.250000", "143125.250000", "143125.250000", "143125.250000", "143125.250000", "143125.250000", "143125.265000", "143125.265000", "143125.265000", "143125.265000", "143125.265000", "143125.281000", "143125.281000", "143125.281000", "143205.234000", "143205.234000", "143205.234000", "143205.234000", "143205.234000", "143205.234000", "143205.234000", "143205.250000", "143205.250000", "143205.250000", "143205.250000", "143205.250000", "143205.265000", "143205.265000", "143205.265000", "143205.265000", "143205.265000", "143205.265000", "143205.265000", "143205.265000", "143245.234000", "143245.250000", "143245.250000", "143245.250000", "143245.250000", "143245.250000", "143245.265000", "143245.265000", "143245.265000", "143245.281000", "143245.281000", "143245.281000", "143245.281000", "143245.281000", "143245.296000", "143245.296000", "143245.296000", "143245.296000", "143245.296000", "143245.296000", "143308.796000", "143308.796000", "143308.796000", "143308.796000", "143308.812000", "143308.812000", "143308.812000", "143308.812000", "143308.812000", "143308.812000", "143308.812000", "143308.812000"],
      "InstanceNumber": [1, 2, 3, 4, 5, 6, 7, 8, 9, 10, 11, 12, 13, 14, 15, 16, 17, 18, 19, 20, 21, 22, 23, 24, 25, 26, 27, 28, 29, 30, 31, 32, 33, 34, 35, 36, 37, 38, 39, 40, 41, 42, 43, 44, 45, 46, 47, 48, 49, 50, 51, 52, 53, 54, 55, 56, 57, 58, 59, 60, 61, 62, 63, 64, 65, 66, 67, 68, 69, 70, 71, 72, 73, 74, 75, 76, 77, 78, 79, 80, 81, 82, 83, 84, 85, 86, 87, 88, 89, 90, 91, 92, 93, 94, 95, 96, 97, 98, 99, 100, 101, 102, 103, 104, 105, 106, 107, 108, 109, 110, 111, 112, 113, 114, 115, 116, 117, 118, 119, 120, 121, 122, 123, 124, 125, 126, 127, 128, 129, 130, 131, 132, 133, 134, 135, 136, 137, 138, 139, 140, 141, 142, 143, 144, 145, 146, 147, 148, 149, 150, 151, 152, 153, 154, 155, 156, 157, 158, 159, 160, 161, 162, 163, 164],
      "LargestImagePixelValue": [2106, 2054, 2001, 1999, 1992, 1993, 1985, 1992, 1989, 1977, 1986, 1981, 1997, 2000, 1996, 1999, 1990, 1990, 1986, 1990, 1990, 1995, 1987, 1989, 1975, 1981, 1989, 2003, 1993, 2004, 2002, 2015, 2003, 1986, 1978, 1982, 1998, 1990, 2004, 1990, 1999, 2007, 1977, 1993, 1990, 2000, 1986, 1981, 1983, 1984, 1983, 1993, 1977, 1996, 1979, 1992, 1990, 1985, 2005, 1990, 1982, 1984, 1991, 1967, 1973, 1966, 1983, 1979, 1978, 1975, 1981, 1979, 1976, 1977, 1971, 1966, 1968, 1987, 1975, 1991, 1977, 1972, 1964, 1961, 1959, 1958, 1954, 1981, 1979, 1977, 1988, 1959, 1961, 1971, 1962, 1973, 1975, 1970, 1959, 1961, 1981, 1971, 1965, 1957, 1977, 1984, 1967, 1986, 1978, 1983, 1999, 1979, 1985, 1981, 1977, 1981, 1981, 1969, 1980, 1964, 1970, 1966, 1966, 1977, 1989, 1969, 1979, 1959, 1995, 1987, 2001, 1989, 1982, 1973, 1976, 1958, 1973, 1982, 1994, 1995, 1967, 1969, 1956, 1956, 1962, 1981, 1966, 1981, 1972, 1954, 1960, 1958, 1962, 1955, 1961, 1988, 1954, 1957, 1957, 1985, 1961, 1955, 1965, 1976],
      "WindowCenter": [756.0, 753.0, 754.0, 752.0, 750.0, 750.0, 750.0, 750.0, 750.0, 750.0, 750.0, 750.0, 750.0, 750.0, 750.0, 751.0, 751.0, 751.0, 751.0, 751.0, 750.0, 751.0, 751.0, 751.0, 750.0, 751.0, 751.0, 751.0, 751.0, 751.0, 752.0, 752.0, 752.0, 751.0, 751.0, 751.0, 752.0, 752.0, 752.0, 751.0, 752.0, 751.0, 751.0, 752.0, 752.0, 751.0, 752.0, 752.0, 751.0, 751.0, 751.0, 752.0, 751.0, 752.0, 752.0, 752.0, 752.0, 752.0, 753.0, 752.0, 752.0, 752.0, 752.0, 751.0, 751.0, 752.0, 752.0, 752.0, 751.0, 751.0, 752.0, 751.0, 751.0, 751.0, 752.0, 752.0, 752.0, 752.0, 751.0, 752.0, 753.0, 752.0, 752.0, 752.0, 753.0, 753.0, 752.0, 752.0, 753.0, 753.0, 752.0, 752.0, 752.0, 752.0, 752.0, 752.0, 752.0, 752.0, 752.0, 753.0, 752.0, 752.0, 752.0, 753.0, 753.0, 752.0, 752.0, 753.0, 752.0, 753.0, 753.0, 753.0, 753.0, 753.0, 753.0, 753.0, 752.0, 752.0, 753.0, 752.0, 752.0, 752.0, 752.0, 752.0, 752.0, 751.0, 751.0, 752.0, 751.0, 752.0, 753.0, 753.0, 752.0, 753.0, 753.0, 752.0, 752.0, 752.0, 753.0, 753.0, 752.0, 753.0, 753.0, 754.0, 753.0, 753.0, 753.0, 753.0, 753.0, 754.0, 753.0, 753.0, 753.0, 753.0, 753.0, 753.0, 753.0, 754.0, 753.0, 753.0, 752.0, 752.0, 753.0, 752.0],
      "WindowWidth": [1665.0, 1658.0, 1658.0, 1653.0, 1647.0, 1646.0, 1647.0, 1648.0, 1648.0, 1648.0, 1648.0, 1648.0, 1647.0, 1647.0, 1648.0, 1649.0, 1649.0, 1650.0, 1651.0, 1649.0, 1646.0, 1649.0, 1651.0, 1651.0, 1648.0, 1649.0, 1650.0, 1651.0, 1651.0, 1650.0, 1652.0, 1654.0, 1652.0, 1650.0, 1649.0, 1650.0, 1652.0, 1653.0, 1652.0, 1651.0, 1652.0, 1651.0, 1651.0, 1652.0, 1652.0, 1650.0, 1652.0, 1651.0, 1649.0, 1651.0, 1651.0, 1652.0, 1650.0, 1651.0, 1653.0, 1652.0, 1653.0, 1653.0, 1655.0, 1653.0, 1653.0, 1653.0, 1651.0, 1650.0, 1651.0, 1651.0, 1651.0, 1651.0, 1651.0, 1650.0, 1652.0, 1651.0, 1651.0, 1650.0, 1651.0, 1652.0, 1652.0, 1652.0, 1650.0, 1653.0, 1655.0, 1653.0, 1652.0, 1652.0, 1654.0, 1654.0, 1652.0, 1652.0, 1654.0, 1656.0, 1654.0, 1654.0, 1653.0, 1654.0, 1653.0, 1653.0, 1653.0, 1654.0, 1654.0, 1655.0, 1653.0, 1652.0, 1654.0, 1654.0, 1654.0, 1653.0, 1654.0, 1654.0, 1653.0, 1655.0, 1656.0, 1656.0, 1656.0, 1655.0, 1655.0, 1655.0, 1653.0, 1652.0, 1654.0, 1652.0, 1653.0, 1653.0, 1652.0, 1652.0, 1652.0, 1650.0, 1650.0, 1650.0, 1650.0, 1651.0, 1655.0, 1656.0, 1654.0, 1656.0, 1656.0, 1654.0, 1653.0, 1652.0, 1656.0, 1654.0, 1653.0, 1655.0, 1656.0, 1657.0, 1656.0, 1655.0, 1654.0, 1656.0, 1656.0, 1657.0, 1656.0, 1655.0, 1655.0, 1657.0, 1656.0, 1655.0, 1657.0, 1657.0, 1656.0, 1655.0, 1652.0, 1653.0, 1654.0, 1653.0]
    },
    "slices": {}
  }
}