{
  "AcquisitionMatrixPE": 64,
  "AcquisitionNumber": 1,
  "AcquisitionTime": "14:40:55.727500",
  "BandwidthPerPixelPhaseEncode": 33.967,
  "BaseResolution": 64,
  "CoilCombinationMethod": "Sum of Squares",
  "CoilString": "C:HEA;HEP",
  "ConversionSoftware": "dcm2niix",
  "ConversionSoftwareVersion": "v1.0.20220720",
  "DerivedVendorReportedEchoSpacing": 0.000460005,
  "DeviceSerialNumber": "35193",
  "DwellTime": 3.1e-06,
  "EchoTime": 0.03,
  "EffectiveEchoSpacing": 0.000460005,
  "FlipAngle": 90,
  "HeudiconvVersion": "1.1.6",
  "ImageOrientationPatientDICOM": [1, 0, 0, 0, 1, 0],
  "ImageOrientationText": "Tra",
  "ImageType": [
    "ORIGINAL",
    "PRIMARY",
    "M",
    "ND",
    "MOSAIC"
],
  "ImagingFrequency": 123.254,
  "InPlanePhaseEncodingDirectionDICOM": "COL",
  "InstitutionAddress": "Xinjiekouwai Street No 19,Beijing,Haidian District,CN,100875",
  "InstitutionName": "Beijing Normal Universtiy/2773C4/",
  "InstitutionalDepartmentName": "Department",
  "MRAcquisitionType": "2D",
  "MagneticFieldStrength": 3,
  "Manufacturer": "Siemens",
  "ManufacturersModelName": "TrioTim",
  "MatrixCoilMode": "SENSE",
  "Modality": "MR",
  "NonlinearGradientCorrection": false,
  "PartialFourier": 1,
  "PatientPosition": "HFS",
  "PercentPhaseFOV": 100,
  "PercentSampling": 100,
  "PhaseEncodingDirection": "j-",
  "PhaseEncodingSteps": 64,
  "PhaseResolution": 1,
  "PixelBandwidth": 2520,
  "ProcedureStepDescription": "BNU_cst_2015^Guo.TaoMei",
  "ProtocolName": "ge_func_3x3x4_164",
  "PulseSequenceDetails": "%SiemensSeq%\\ep2d_bold",
  "ReceiveCoilName": "HeadMatrix",
  "ReconMatrixPE": 64,
  "RepetitionTime": 2,
  "SAR": 0.127072,
  "ScanOptions": "FS",
  "ScanningSequence": "EP",
  "SequenceName": "*epfid2d1_64",
  "SequenceVariant": "SK",
  "SeriesDescription": "ge_func_3x3x4_164",
  "SeriesNumber": 4,
  "ShimSetting": [-4519, -19409, -9865, 1251, -73, -238, -82, -141],
  "SliceThickness": 4,
  "SliceTiming": [0, 1.0325, 0.06, 1.095, 0.12, 1.155, 0.1825, 1.215, 0.2425, 1.2775, 0.3025, 1.3375, 0.365, 1.3975, 0.425, 1.46, 0.485, 1.52, 0.5475, 1.58, 0.6075, 1.6425, 0.6675, 1.7025, 0.73, 1.7625, 0.79, 1.825, 0.85, 1.885, 0.9125, 1.945, 0.9725],
  "SoftwareVersions": "syngo MR B17",
  "SpacingBetweenSlices": 4.6,
  "StationName": "MRC35193",
  "TaskName": "LanguageControl",
  "TotalReadoutTime": 0.0289803,
  "TxRefAmp": 337.346,
  "dcmmeta_affine": [
    [-3.125, 0.0, 0.0, 104.0481948852539],
    [0.0, 3.125, 0.0, -83.38102722167969],
    [0.0, 0.0, 4.599999904632568, -55.38313293457031],
    [0.0, 0.0, 0.0, 1.0]
],
  "dcmmeta_reorient_transform": [
    [0.0, -1.0, 0.0, 63.0],
    [1.0, 0.0, 0.0, 0.0],
    [0.0, 0.0, 1.0, 0.0],
    [0.0, 0.0, 0.0, 1.0]
],
  "dcmmeta_shape": [64, 64, 33, 164],
  "dcmmeta_slice_dim": 2,
  "dcmmeta_version": 0.6,
  "global": {
    "const": {
      "AcquisitionMatrix": [64, 0, 0, 64],
      "AngioFlag": "N",
      "BitsAllocated": 16,
      "BitsStored": 12,
      "Columns": 384,
      "EchoNumbers": 1,
      "EchoTime": 30.0,
      "EchoTrainLength": 1,
      "FlipAngle": 90.0,
      "HighBit": 11,
      "ImageOrientationPatient": [1.0, 0.0, 0.0, 0.0, 1.0, 0.0],
      "ImagePositionPatient": [-604.04819297791, -613.49397563934, -55.38313293457],
      "ImageType": [
        "ORIGINAL",
        "PRIMARY",
        "M",
        "ND",
        "MOSAIC"
],
      "ImagedNucleus": "1H",
      "ImagingFrequency": 123.253702,
      "InPlanePhaseEncodingDirection": "COL",
      "MRAcquisitionType": "2D",
      "MagneticFieldStrength": 3.0,
      "Manufacturer": "SIEMENS",
      "ManufacturerModelName": "TrioTim",
      "Modality": "MR",
      "NumberOfAverages": 1.0,
      "NumberOfPhaseEncodingSteps": 64,
      "PercentPhaseFieldOfView": 100.0,
      "PercentSampling": 100.0,
      "PerformedProcedureStepStartTime": "142532.875000",
      "PhotometricInterpretation": "MONOCHROME2",
      "PixelBandwidth": 2520.0,
      "PixelRepresentation": 0,
      "PixelSpacing": [3.125, 3.125],
      "ProtocolName": "ge_func_3x3x4_164",
      "RepetitionTime": 2000.0,
      "Rows": 384,
      "SAR": 0.12707175059986,
      "SamplesPerPixel": 1,
      "ScanOptions": "FS",
      "ScanningSequence": "EP",
      "SequenceName": "*epfid2d1_64",
      "SequenceVariant": "SK",
      "SeriesDescription": "ge_func_3x3x4_164",
      "SeriesNumber": 4,
      "SeriesTime": "144156.781000",
      "SliceLocation": -55.38313293457,
      "SliceThickness": 4.0,
      "SmallestImagePixelValue": 0,
      "SoftwareVersions": "syngo MR B17",
      "SpacingBetweenSlices": 4.5999999046326,
      "SpecificCharacterSet": "ISO_IR 100",
      "StudyID": "1",
      "StudyTime": "142532.828000",
      "TransmitCoilName": "Body",
      "VariableFlipAngleFlag": "N",
      "WindowCenterWidthExplanation": "Algo1",
      "dBdt": 0.0},
    "slices": {}
  },
  "time": {
    "samples": {
      "AcquisitionNumber": [1, 2, 3, 4, 5, 6, 7, 8, 9, 10, 11, 12, 13, 14, 15, 16, 17, 18, 19, 20, 21, 22, 23, 24, 25, 26, 27, 28, 29, 30, 31, 32, 33, 34, 35, 36, 37, 38, 39, 40, 41, 42, 43, 44, 45, 46, 47, 48, 49, 50, 51, 52, 53, 54, 55, 56, 57, 58, 59, 60, 61, 62, 63, 64, 65, 66, 67, 68, 69, 70, 71, 72, 73, 74, 75, 76, 77, 78, 79, 80, 81, 82, 83, 84, 85, 86, 87, 88, 89, 90, 91, 92, 93, 94, 95, 96, 97, 98, 99, 100, 101, 102, 103, 104, 105, 106, 107, 108, 109, 110, 111, 112, 113, 114, 115, 116, 117, 118, 119, 120, 121, 122, 123, 124, 125, 126, 127, 128, 129, 130, 131, 132, 133, 134, 135, 136, 137, 138, 139, 140, 141, 142, 143, 144, 145, 146, 147, 148, 149, 150, 151, 152, 153, 154, 155, 156, 157, 158, 159, 160, 161, 162, 163, 164],
      "AcquisitionTime": ["144055.727500", "144057.735000", "144059.742500", "144101.750000", "144103.760000", "144105.767500", "144107.775000", "144109.782500", "144111.790000", "144113.800000", "144115.807500", "144117.815000", "144119.822500", "144121.830000", "144123.840000", "144125.847500", "144127.855000", "144129.862500", "144131.872500", "144133.880000", "144135.887500", "144137.895000", "144139.902500", "144141.912500", "144143.920000", "144145.927500", "144147.935000", "144149.942500", "144151.952500", "144153.960000", "144155.967500", "144157.975000", "144159.985000", "144201.992500", "144204.000000", "144206.007500", "144208.015000", "144210.025000", "144212.032500", "144214.040000", "144216.047500", "144218.055000", "144220.065000", "144222.072500", "144224.080000", "144226.087500", "144228.097500", "144230.105000", "144232.112500", "144234.120000", "144236.127500", "144238.137500", "144240.145000", "144242.152500", "144244.160000", "144246.167500", "144248.177500", "144250.185000", "144252.192500", "144254.200000", "144256.207500", "144258.217500", "144300.225000", "144302.232500", "144304.240000", "144306.250000", "144308.257500", "144310.265000", "144312.272500", "144314.280000", "144316.290000", "144318.297500", "144320.305000", "144322.312500", "144324.320000", "144326.330000", "144328.337500", "144330.345000", "144332.352500", "144334.362500", "144336.370000", "144338.377500", "144340.385000", "144342.392500", "144344.402500", "144346.410000", "144348.417500", "144350.425000", "144352.432500", "144354.442500", "144356.450000", "144358.457500", "144400.465000", "144402.475000", "144404.482500", "144406.490000", "144408.497500", "144410.505000", "144412.515000", "144414.522500", "144416.530000", "144418.537500", "144420.545000", "144422.555000", "144424.562500", "144426.570000", "144428.577500", "144430.585000", "144432.595000", "144434.602500", "144436.610000", "144438.617500", "144440.627500", "144442.635000", "144444.642500", "144446.650000", "144448.657500", "144450.667500", "144452.675000", "144454.682500", "144456.690000", "144458.697500", "144500.707500", "144502.715000", "144504.722500", "144506.730000", "144508.740000", "144510.747500", "144512.755000", "144514.762500", "144516.770000", "144518.780000", "144520.787500", "144522.795000", "144524.802500", "144526.810000", "144528.820000", "144530.827500", "144532.835000", "144534.842500", "144536.852500", "144538.860000", "144540.867500", "144542.875000", "144544.882500", "144546.892500", "144548.900000", "144550.907500", "144552.915000", "144554.922500", "144556.932500", "144558.940000", "144600.947500", "144602.955000", "144604.965000", "144606.972500", "144608.980000", "144610.987500", "144612.995000", "144615.005000", "144617.012500", "144619.020000", "144621.027500", "144623.035000"],
      "ContentTime": ["144156.781000", "144156.781000", "144156.781000", "144156.796000", "144156.796000", "144156.796000", "144156.796000", "144156.796000", "144156.796000", "144156.796000", "144156.796000", "144156.812000", "144156.812000", "144156.812000", "144156.812000", "144156.812000", "144156.828000", "144156.828000", "144156.828000", "144156.828000", "144156.828000", "144156.843000", "144156.843000", "144156.843000", "144156.843000", "144156.843000", "144156.859000", "144156.859000", "144156.859000", "144236.781000", "144236.781000", "144236.781000", "144236.781000", "144236.781000", "144236.781000", "144236.796000", "144236.796000", "144236.796000", "144236.796000", "144236.796000", "144236.796000", "144236.796000", "144236.796000", "144236.812000", "144236.812000", "144236.812000", "144236.812000", "144236.812000", "144236.812000", "144316.781000", "144316.781000", "144316.781000", "144316.781000", "144316.796000", "144316.796000", "144316.796000", "144316.796000", "144316.812000", "144316.812000", "144316.812000", "144316.812000", "144316.828000", "144316.828000", "144316.828000", "144316.828000", "144316.828000", "144316.828000", "144316.828000", "144316.828000", "144356.781000", "144356.781000", "144356.781000", "144356.781000", "144356.781000", "144356.796000", "144356.796000", "144356.796000", "144356.796000", "144356.796000", "144356.796000", "144356.796000", "144356.812000", "144356.812000", "144356.812000", "144356.812000", "144356.812000", "144356.812000", "144356.812000", "144356.812000", "144436.781000", "144436.781000", "144436.781000", "144436.781000", "144436.781000", "144436.781000", "144436.796000", "144436.796000", "144436.796000", "144436.796000", "144436.796000", "144436.796000", "144436.812000", "144436.812000", "144436.812000", "144436.812000", "144436.812000", "144436.812000", "144436.812000", "144436.812000", "144516.781000", "144516.781000", "144516.781000", "144516.781000", "144516.781000", "144516.781000", "144516.781000", "144516.796000", "144516.796000", "144516.796000", "144516.796000", "144516.796000", "144516.796000", "144516.796000", "144516.796000", "144516.812000", "144516.812000", "144516.812000", "144516.812000", "144516.812000", "144556.781000", "144556.781000", "144556.781000", "144556.781000", "144556.781000", "144556.781000", "144556.781000", "144556.796000", "144556.796000", "144556.796000", "144556.796000", "144556.796000", "144556.812000", "144556.812000", "144556.812000", "144556.828000", "144556.828000", "144556.828000", "144556.828000", "144556.828000", "144625.468000", "144625.468000", "144625.468000", "144625.468000", "144625.484000", "144625.484000", "144625.484000", "144625.484000", "144625.484000", "144625.484000", "144625.484000", "144625.484000", "144625.500000", "144625.500000", "144625.500000"],
      "InstanceCreationTime": ["144156.781000", "144156.781000", "144156.781000", "144156.796000", "144156.796000", "144156.796000", "144156.796000", "144156.796000", "144156.796000", "144156.796000", "144156.796000", "144156.812000", "144156.812000", "144156.812000", "144156.812000", "144156.812000", "144156.828000", "144156.828000", "144156.828000", "144156.828000", "144156.828000", "144156.843000", "144156.843000", "144156.843000", "144156.843000", "144156.843000", "144156.859000", "144156.859000", "144156.859000", "144236.781000", "144236.781000", "144236.781000", "144236.781000", "144236.781000", "144236.781000", "144236.796000", "144236.796000", "144236.796000", "144236.796000", "144236.796000", "144236.796000", "144236.796000", "144236.796000", "144236.812000", "144236.812000", "144236.812000", "144236.812000", "144236.812000", "144236.812000", "144316.781000", "144316.781000", "144316.781000", "144316.781000", "144316.796000", "144316.796000", "144316.796000", "144316.796000", "144316.812000", "144316.812000", "144316.812000", "144316.812000", "144316.828000", "144316.828000", "144316.828000", "144316.828000", "144316.828000", "144316.828000", "144316.828000", "144316.828000", "144356.781000", "144356.781000", "144356.781000", "144356.781000", "144356.781000", "144356.796000", "144356.796000", "144356.796000", "144356.796000", "144356.796000", "144356.796000", "144356.796000", "144356.812000", "144356.812000", "144356.812000", "144356.812000", "144356.812000", "144356.812000", "144356.812000", "144356.812000", "144436.781000", "144436.781000", "144436.781000", "144436.781000", "144436.781000", "144436.781000", "144436.796000", "144436.796000", "144436.796000", "144436.796000", "144436.796000", "144436.796000", "144436.812000", "144436.812000", "144436.812000", "144436.812000", "144436.812000", "144436.812000", "144436.812000", "144436.812000", "144516.781000", "144516.781000", "144516.781000", "144516.781000", "144516.781000", "144516.781000", "144516.781000", "144516.796000", "144516.796000", "144516.796000", "144516.796000", "144516.796000", "144516.796000", "144516.796000", "144516.796000", "144516.812000", "144516.812000", "144516.812000", "144516.812000", "144516.812000", "144556.781000", "144556.781000", "144556.781000", "144556.781000", "144556.781000", "144556.781000", "144556.781000", "144556.796000", "144556.796000", "144556.796000", "144556.796000", "144556.796000", "144556.812000", "144556.812000", "144556.812000", "144556.828000", "144556.828000", "144556.828000", "144556.828000", "144556.828000", "144625.468000", "144625.468000", "144625.468000", "144625.468000", "144625.484000", "144625.484000", "144625.484000", "144625.484000", "144625.484000", "144625.484000", "144625.484000", "144625.484000", "144625.500000", "144625.500000", "144625.500000"],
      "InstanceNumber": [1, 2, 3, 4, 5, 6, 7, 8, 9, 10, 11, 12, 13, 14, 15, 16, 17, 18, 19, 20, 21, 22, 23, 24, 25, 26, 27, 28, 29, 30, 31, 32, 33, 34, 35, 36, 37, 38, 39, 40, 41, 42, 43, 44, 45, 46, 47, 48, 49, 50, 51, 52, 53, 54, 55, 56, 57, 58, 59, 60, 61, 62, 63, 64, 65, 66, 67, 68, 69, 70, 71, 72, 73, 74, 75, 76, 77, 78, 79, 80, 81, 82, 83, 84, 85, 86, 87, 88, 89, 90, 91, 92, 93, 94, 95, 96, 97, 98, 99, 100, 101, 102, 103, 104, 105, 106, 107, 108, 109, 110, 111, 112, 113, 114, 115, 116, 117, 118, 119, 120, 121, 122, 123, 124, 125, 126, 127, 128, 129, 130, 131, 132, 133, 134, 135, 136, 137, 138, 139, 140, 141, 142, 143, 144, 145, 146, 147, 148, 149, 150, 151, 152, 153, 154, 155, 156, 157, 158, 159, 160, 161, 162, 163, 164],
      "LargestImagePixelValue": [2016, 1964, 1960, 1922, 1941, 1926, 1919, 1916, 1912, 1934, 1926, 1944, 1944, 1944, 1919, 1943, 1942, 1928, 1942, 1919, 1948, 1928, 1906, 1933, 1938, 1936, 1948, 1923, 1938, 1923, 1934, 1945, 1928, 1918, 1924, 1918, 1946, 1926, 1954, 1942, 1944, 1938, 1932, 1925, 1934, 1916, 1943, 1942, 1938, 1928, 1915, 1943, 1935, 1928, 1948, 1938, 1928, 1930, 1926, 1930, 1938, 1939, 1934, 1940, 1943, 1948, 1955, 1946, 1947, 1960, 1940, 1947, 1951, 1950, 1957, 1970, 1951, 1963, 1953, 1956, 1935, 1940, 1973, 1973, 1963, 1964, 1960, 1954, 1960, 1972, 1961, 1965, 1952, 1973, 1951, 1935, 1960, 1967, 1966, 1979, 1959, 1987, 1970, 1978, 1966, 1964, 1962, 1978, 1974, 1972, 1964, 1988, 1967, 1952, 1978, 1987, 1984, 1999, 2000, 1970, 1963, 1964, 1969, 1966, 1967, 1983, 1985, 1985, 1968, 1981, 1987, 1972, 1984, 1978, 1984, 1986, 1996, 1982, 1980, 1987, 1980, 1986, 1994, 1999, 2007, 1991, 1989, 1995, 2011, 1989, 1974, 1978, 1971, 1996, 1995, 1963, 1992, 1999, 1963, 1987, 1970, 1979, 2000, 2010],
      "WindowCenter": [761.0, 758.0, 757.0, 756.0, 755.0, 755.0, 755.0, 755.0, 755.0, 755.0, 754.0, 755.0, 755.0, 755.0, 755.0, 755.0, 755.0, 755.0, 755.0, 753.0, 753.0, 756.0, 757.0, 757.0, 755.0, 754.0, 754.0, 754.0, 755.0, 755.0, 756.0, 756.0, 756.0, 754.0, 754.0, 754.0, 756.0, 757.0, 756.0, 756.0, 755.0, 755.0, 755.0, 755.0, 756.0, 755.0, 756.0, 755.0, 756.0, 757.0, 756.0, 757.0, 755.0, 754.0, 755.0, 755.0, 756.0, 756.0, 755.0, 755.0, 755.0, 755.0, 754.0, 754.0, 754.0, 754.0, 755.0, 755.0, 756.0, 756.0, 755.0, 754.0, 754.0, 753.0, 754.0, 755.0, 755.0, 755.0, 755.0, 755.0, 756.0, 756.0, 755.0, 755.0, 756.0, 755.0, 755.0, 755.0, 755.0, 755.0, 755.0, 756.0, 755.0, 756.0, 755.0, 755.0, 756.0, 756.0, 755.0, 755.0, 755.0, 755.0, 756.0, 756.0, 757.0, 757.0, 756.0, 756.0, 755.0, 755.0, 755.0, 755.0, 756.0, 756.0, 756.0, 756.0, 756.0, 757.0, 757.0, 757.0, 756.0, 756.0, 756.0, 756.0, 755.0, 755.0, 755.0, 756.0, 756.0, 756.0, 756.0, 756.0, 755.0, 756.0, 757.0, 757.0, 757.0, 757.0, 758.0, 757.0, 757.0, 757.0, 756.0, 757.0, 757.0, 757.0, 757.0, 756.0, 756.0, 756.0, 756.0, 756.0, 756.0, 756.0, 756.0, 755.0, 755.0, 756.0, 756.0, 756.0, 756.0, 755.0, 756.0, 755.0],
      "WindowWidth": [1679.0, 1668.0, 1666.0, 1662.0, 1661.0, 1660.0, 1660.0, 1659.0, 1659.0, 1659.0, 1657.0, 1659.0, 1661.0, 1661.0, 1660.0, 1661.0, 1659.0, 1659.0, 1659.0, 1653.0, 1655.0, 1663.0, 1667.0, 1666.0, 1661.0, 1657.0, 1657.0, 1658.0, 1659.0, 1660.0, 1663.0, 1665.0, 1662.0, 1659.0, 1656.0, 1658.0, 1663.0, 1665.0, 1664.0, 1661.0, 1658.0, 1659.0, 1661.0, 1660.0, 1662.0, 1661.0, 1662.0, 1661.0, 1663.0, 1666.0, 1664.0, 1665.0, 1661.0, 1658.0, 1659.0, 1661.0, 1664.0, 1665.0, 1661.0, 1660.0, 1662.0, 1659.0, 1657.0, 1657.0, 1657.0, 1658.0, 1661.0, 1661.0, 1662.0, 1663.0, 1660.0, 1658.0, 1657.0, 1655.0, 1657.0, 1660.0, 1660.0, 1662.0, 1660.0, 1662.0, 1662.0, 1662.0, 1660.0, 1660.0, 1663.0, 1661.0, 1659.0, 1660.0, 1662.0, 1660.0, 1661.0, 1662.0, 1662.0, 1662.0, 1660.0, 1660.0, 1664.0, 1662.0, 1659.0, 1659.0, 1660.0, 1661.0, 1662.0, 1665.0, 1665.0, 1666.0, 1663.0, 1662.0, 1661.0, 1661.0, 1660.0, 1661.0, 1662.0, 1663.0, 1663.0, 1662.0, 1663.0, 1665.0, 1665.0, 1665.0, 1664.0, 1662.0, 1662.0, 1662.0, 1661.0, 1659.0, 1661.0, 1663.0, 1663.0, 1664.0, 1664.0, 1662.0, 1661.0, 1664.0, 1665.0, 1665.0, 1667.0, 1667.0, 1668.0, 1666.0, 1665.0, 1665.0, 1663.0, 1665.0, 1667.0, 1667.0, 1665.0, 1663.0, 1665.0, 1664.0, 1663.0, 1664.0, 1663.0, 1663.0, 1661.0, 1659.0, 1660.0, 1663.0, 1662.0, 1663.0, 1661.0, 1661.0, 1663.0, 1661.0]
    },
    "slices": {}
  }
}