{
  "AcquisitionMatrixPE": 64,
  "AcquisitionNumber": 1,
  "AcquisitionTime": "10:13:18.915000",
  "BandwidthPerPixelPhaseEncode": 33.967,
  "BaseResolution": 64,
  "CoilCombinationMethod": "Sum of Squares",
  "CoilString": "C:HEA;HEP",
  "ConversionSoftware": "dcm2niix",
  "ConversionSoftwareVersion": "v1.0.20220720",
  "DerivedVendorReportedEchoSpacing": 0.000460005,
  "DeviceSerialNumber": "35193",
  "DwellTime": 3.1e-06,
  "EchoTime": 0.03,
  "EffectiveEchoSpacing": 0.000460005,
  "FlipAngle": 90,
  "HeudiconvVersion": "1.1.6",
  "ImageOrientationPatientDICOM": [1, 0, 0, 0, 1, 0],
  "ImageOrientationText": "Tra",
  "ImageType": [
    "ORIGINAL",
    "PRIMARY",
    "M",
    "ND",
    "MOSAIC"
],
  "ImagingFrequency": 123.254,
  "InPlanePhaseEncodingDirectionDICOM": "COL",
  "InstitutionAddress": "Xinjiekouwai Street No 19,Beijing,Haidian District,CN,100875",
  "InstitutionName": "BNU MRI Center",
  "InstitutionalDepartmentName": "Department",
  "MRAcquisitionType": "2D",
  "MagneticFieldStrength": 3,
  "Manufacturer": "Siemens",
  "ManufacturersModelName": "TrioTim",
  "MatrixCoilMode": "SENSE",
  "Modality": "MR",
  "NonlinearGradientCorrection": false,
  "PartialFourier": 1,
  "PatientPosition": "HFS",
  "PercentPhaseFOV": 100,
  "PercentSampling": 100,
  "PhaseEncodingDirection": "j-",
  "PhaseEncodingSteps": 64,
  "PhaseResolution": 1,
  "PixelBandwidth": 2520,
  "ProcedureStepDescription": "BNU_cst_2015^Guo.TaoMei",
  "ProtocolName": "ge_func_3x3x4_164",
  "PulseSequenceDetails": "%SiemensSeq%\\ep2d_bold",
  "ReceiveCoilName": "HeadMatrix",
  "ReconMatrixPE": 64,
  "RepetitionTime": 2,
  "SAR": 0.123799,
  "ScanOptions": "FS",
  "ScanningSequence": "EP",
  "SequenceName": "*epfid2d1_64",
  "SequenceVariant": "SK",
  "SeriesDescription": "ge_func_3x3x4_164",
  "SeriesNumber": 2,
  "ShimSetting": [-4533, -19402, -9835, 1121, -204, -589, -47, -95],
  "SliceThickness": 4,
  "SliceTiming": [0, 1.0325, 0.06, 1.095, 0.12, 1.155, 0.1825, 1.215, 0.2425, 1.2775, 0.3025, 1.3375, 0.365, 1.3975, 0.425, 1.46, 0.485, 1.52, 0.5475, 1.58, 0.6075, 1.6425, 0.6675, 1.7025, 0.73, 1.7625, 0.79, 1.825, 0.85, 1.885, 0.9125, 1.945, 0.9725],
  "SoftwareVersions": "syngo MR B17",
  "SpacingBetweenSlices": 4.6,
  "StationName": "MRC35193",
  "TaskName": "CognitiveControl",
  "TotalReadoutTime": 0.0289803,
  "TxRefAmp": 322.082,
  "dcmmeta_affine": [
    [-3.125, 0.0, 0.0, 101.34939575195312],
    [0.0, 3.125, 0.0, -88.10391235351562],
    [0.0, 0.0, 4.599999904632568, -67.5277099609375],
    [0.0, 0.0, 0.0, 1.0]
],
  "dcmmeta_reorient_transform": [
    [0.0, -1.0, 0.0, 63.0],
    [1.0, 0.0, 0.0, 0.0],
    [0.0, 0.0, 1.0, 0.0],
    [0.0, 0.0, 0.0, 1.0]
],
  "dcmmeta_shape": [64, 64, 33, 164],
  "dcmmeta_slice_dim": 2,
  "dcmmeta_version": 0.6,
  "global": {
    "const": {
      "AcquisitionMatrix": [64, 0, 0, 64],
      "AngioFlag": "N",
      "BitsAllocated": 16,
      "BitsStored": 12,
      "Columns": 384,
      "EchoNumbers": 1,
      "EchoTime": 30.0,
      "EchoTrainLength": 1,
      "FlipAngle": 90.0,
      "HighBit": 11,
      "ImageOrientationPatient": [1.0, 0.0, 0.0, 0.0, 1.0, 0.0],
      "ImagePositionPatient": [-601.34939754009, -608.77108478546, -67.527709960938],
      "ImageType": [
        "ORIGINAL",
        "PRIMARY",
        "M",
        "ND",
        "MOSAIC"
],
      "ImagedNucleus": "1H",
      "ImagingFrequency": 123.253645,
      "InPlanePhaseEncodingDirection": "COL",
      "MRAcquisitionType": "2D",
      "MagneticFieldStrength": 3.0,
      "Manufacturer": "SIEMENS",
      "ManufacturerModelName": "TrioTim",
      "Modality": "MR",
      "NumberOfAverages": 1.0,
      "NumberOfPhaseEncodingSteps": 64,
      "PercentPhaseFieldOfView": 100.0,
      "PercentSampling": 100.0,
      "PerformedProcedureStepStartTime": "101102.031000",
      "PhotometricInterpretation": "MONOCHROME2",
      "PixelBandwidth": 2520.0,
      "PixelRepresentation": 0,
      "PixelSpacing": [3.125, 3.125],
      "ProtocolName": "ge_func_3x3x4_164",
      "RepetitionTime": 2000.0,
      "Rows": 384,
      "SAR": 0.12379904706031,
      "SamplesPerPixel": 1,
      "ScanOptions": "FS",
      "ScanningSequence": "EP",
      "SequenceName": "*epfid2d1_64",
      "SequenceVariant": "SK",
      "SeriesDescription": "ge_func_3x3x4_164",
      "SeriesNumber": 2,
      "SeriesTime": "101402.171000",
      "SliceLocation": -67.527709960938,
      "SliceThickness": 4.0,
      "SmallestImagePixelValue": 0,
      "SoftwareVersions": "syngo MR B17",
      "SpacingBetweenSlices": 4.5999999046326,
      "SpecificCharacterSet": "ISO_IR 100",
      "StudyID": "1",
      "StudyTime": "101101.937000",
      "TransmitCoilName": "Body",
      "VariableFlipAngleFlag": "N",
      "WindowCenterWidthExplanation": "Algo1",
      "dBdt": 0.0},
    "slices": {}
  },
  "time": {
    "samples": {
      "AcquisitionNumber": [1, 2, 3, 4, 5, 6, 7, 8, 9, 10, 11, 12, 13, 14, 15, 16, 17, 18, 19, 20, 21, 22, 23, 24, 25, 26, 27, 28, 29, 30, 31, 32, 33, 34, 35, 36, 37, 38, 39, 40, 41, 42, 43, 44, 45, 46, 47, 48, 49, 50, 51, 52, 53, 54, 55, 56, 57, 58, 59, 60, 61, 62, 63, 64, 65, 66, 67, 68, 69, 70, 71, 72, 73, 74, 75, 76, 77, 78, 79, 80, 81, 82, 83, 84, 85, 86, 87, 88, 89, 90, 91, 92, 93, 94, 95, 96, 97, 98, 99, 100, 101, 102, 103, 104, 105, 106, 107, 108, 109, 110, 111, 112, 113, 114, 115, 116, 117, 118, 119, 120, 121, 122, 123, 124, 125, 126, 127, 128, 129, 130, 131, 132, 133, 134, 135, 136, 137, 138, 139, 140, 141, 142, 143, 144, 145, 146, 147, 148, 149, 150, 151, 152, 153, 154, 155, 156, 157, 158, 159, 160, 161, 162, 163, 164],
      "AcquisitionTime": ["101318.915000", "101320.922500", "101322.930000", "101324.937500", "101326.947500", "101328.955000", "101330.962500", "101332.970000", "101334.977500", "101336.987500", "101338.995000", "101341.002500", "101343.010000", "101345.020000", "101347.027500", "101349.035000", "101351.042500", "101353.050000", "101355.060000", "101357.067500", "101359.075000", "101401.082500", "101403.090000", "101405.100000", "101407.107500", "101409.115000", "101411.122500", "101413.132500", "101415.140000", "101417.147500", "101419.155000", "101421.162500", "101423.172500", "101425.180000", "101427.187500", "101429.195000", "101431.202500", "101433.212500", "101435.220000", "101437.227500", "101439.235000", "101441.245000", "101443.252500", "101445.260000", "101447.267500", "101449.275000", "101451.285000", "101453.292500", "101455.300000", "101457.307500", "101459.315000", "101501.325000", "101503.332500", "101505.340000", "101507.347500", "101509.355000", "101511.365000", "101513.372500", "101515.380000", "101517.387500", "101519.397500", "101521.405000", "101523.412500", "101525.420000", "101527.427500", "101529.437500", "101531.445000", "101533.452500", "101535.460000", "101537.467500", "101539.477500", "101541.485000", "101543.492500", "101545.500000", "101547.510000", "101549.517500", "101551.525000", "101553.532500", "101555.540000", "101557.550000", "101559.557500", "101601.565000", "101603.572500", "101605.580000", "101607.590000", "101609.597500", "101611.605000", "101613.612500", "101615.622500", "101617.630000", "101619.637500", "101621.645000", "101623.652500", "101625.662500", "101627.670000", "101629.677500", "101631.685000", "101633.692500", "101635.702500", "101637.710000", "101639.717500", "101641.725000", "101643.732500", "101645.742500", "101647.750000", "101649.757500", "101651.765000", "101653.775000", "101655.782500", "101657.790000", "101659.797500", "101701.805000", "101703.815000", "101705.822500", "101707.830000", "101709.837500", "101711.845000", "101713.855000", "101715.862500", "101717.870000", "101719.877500", "101721.887500", "101723.895000", "101725.902500", "101727.910000", "101729.917500", "101731.927500", "101733.935000", "101735.942500", "101737.950000", "101739.957500", "101741.967500", "101743.975000", "101745.982500", "101747.990000", "101750.000000", "101752.007500", "101754.015000", "101756.022500", "101758.030000", "101800.040000", "101802.047500", "101804.055000", "101806.062500", "101808.070000", "101810.080000", "101812.087500", "101814.095000", "101816.102500", "101818.110000", "101820.120000", "101822.127500", "101824.135000", "101826.142500", "101828.152500", "101830.160000", "101832.167500", "101834.175000", "101836.182500", "101838.192500", "101840.200000", "101842.207500", "101844.215000", "101846.222500"],
      "ContentTime": ["101402.171000", "101402.171000", "101402.171000", "101402.171000", "101402.187000", "101402.187000", "101402.187000", "101402.203000", "101402.203000", "101402.203000", "101402.203000", "101402.203000", "101402.203000", "101402.203000", "101402.203000", "101402.218000", "101402.218000", "101402.218000", "101402.218000", "101402.218000", "101402.234000", "101442.171000", "101442.171000", "101442.171000", "101442.171000", "101442.171000", "101442.171000", "101442.171000", "101442.171000", "101442.187000", "101442.187000", "101442.187000", "101442.187000", "101442.187000", "101442.203000", "101442.203000", "101442.203000", "101442.203000", "101442.203000", "101442.203000", "101442.203000", "101522.171000", "101522.171000", "101522.171000", "101522.171000", "101522.171000", "101522.171000", "101522.171000", "101522.171000", "101522.187000", "101522.187000", "101522.187000", "101522.187000", "101522.187000", "101522.203000", "101522.203000", "101522.218000", "101522.218000", "101522.218000", "101522.218000", "101522.218000", "101602.171000", "101602.171000", "101602.171000", "101602.171000", "101602.187000", "101602.187000", "101602.187000", "101602.187000", "101602.203000", "101602.203000", "101602.203000", "101602.203000", "101602.203000", "101602.218000", "101602.218000", "101602.218000", "101602.218000", "101602.234000", "101602.234000", "101602.234000", "101642.156000", "101642.171000", "101642.171000", "101642.171000", "101642.171000", "101642.171000", "101642.187000", "101642.187000", "101642.187000", "101642.187000", "101642.187000", "101642.203000", "101642.203000", "101642.203000", "101642.203000", "101642.203000", "101642.203000", "101642.203000", "101642.203000", "101642.218000", "101722.171000", "101722.171000", "101722.171000", "101722.171000", "101722.171000", "101722.187000", "101722.187000", "101722.187000", "101722.187000", "101722.187000", "101722.187000", "101722.187000", "101722.187000", "101722.203000", "101722.203000", "101722.203000", "101722.203000", "101722.203000", "101722.203000", "101722.203000", "101802.171000", "101802.171000", "101802.171000", "101802.171000", "101802.171000", "101802.171000", "101802.171000", "101802.171000", "101802.187000", "101802.187000", "101802.187000", "101802.187000", "101802.187000", "101802.187000", "101802.187000", "101802.187000", "101802.203000", "101802.203000", "101802.203000", "101802.203000", "101842.171000", "101842.171000", "101842.171000", "101842.171000", "101842.171000", "101842.171000", "101842.171000", "101842.171000", "101842.187000", "101842.187000", "101842.187000", "101842.187000", "101842.187000", "101842.187000", "101842.187000", "101842.187000", "101842.203000", "101842.203000", "101842.203000", "101842.203000", "101847.906000", "101847.906000", "101847.906000"],
      "InstanceCreationTime": ["101402.171000", "101402.171000", "101402.171000", "101402.171000", "101402.187000", "101402.187000", "101402.187000", "101402.203000", "101402.203000", "101402.203000", "101402.203000", "101402.203000", "101402.203000", "101402.203000", "101402.203000", "101402.218000", "101402.218000", "101402.218000", "101402.218000", "101402.218000", "101402.234000", "101442.171000", "101442.171000", "101442.171000", "101442.171000", "101442.171000", "101442.171000", "101442.171000", "101442.171000", "101442.187000", "101442.187000", "101442.187000", "101442.187000", "101442.187000", "101442.203000", "101442.203000", "101442.203000", "101442.203000", "101442.203000", "101442.203000", "101442.203000", "101522.171000", "101522.171000", "101522.171000", "101522.171000", "101522.171000", "101522.171000", "101522.171000", "101522.171000", "101522.187000", "101522.187000", "101522.187000", "101522.187000", "101522.187000", "101522.203000", "101522.203000", "101522.218000", "101522.218000", "101522.218000", "101522.218000", "101522.218000", "101602.171000", "101602.171000", "101602.171000", "101602.171000", "101602.187000", "101602.187000", "101602.187000", "101602.187000", "101602.203000", "101602.203000", "101602.203000", "101602.203000", "101602.203000", "101602.218000", "101602.218000", "101602.218000", "101602.218000", "101602.234000", "101602.234000", "101602.234000", "101642.156000", "101642.171000", "101642.171000", "101642.171000", "101642.171000", "101642.171000", "101642.187000", "101642.187000", "101642.187000", "101642.187000", "101642.187000", "101642.203000", "101642.203000", "101642.203000", "101642.203000", "101642.203000", "101642.203000", "101642.203000", "101642.203000", "101642.218000", "101722.171000", "101722.171000", "101722.171000", "101722.171000", "101722.171000", "101722.187000", "101722.187000", "101722.187000", "101722.187000", "101722.187000", "101722.187000", "101722.187000", "101722.187000", "101722.203000", "101722.203000", "101722.203000", "101722.203000", "101722.203000", "101722.203000", "101722.203000", "101802.171000", "101802.171000", "101802.171000", "101802.171000", "101802.171000", "101802.171000", "101802.171000", "101802.171000", "101802.187000", "101802.187000", "101802.187000", "101802.187000", "101802.187000", "101802.187000", "101802.187000", "101802.187000", "101802.203000", "101802.203000", "101802.203000", "101802.203000", "101842.171000", "101842.171000", "101842.171000", "101842.171000", "101842.171000", "101842.171000", "101842.171000", "101842.171000", "101842.187000", "101842.187000", "101842.187000", "101842.187000", "101842.187000", "101842.187000", "101842.187000", "101842.187000", "101842.203000", "101842.203000", "101842.203000", "101842.203000", "101847.906000", "101847.906000", "101847.906000"],
      "InstanceNumber": [1, 2, 3, 4, 5, 6, 7, 8, 9, 10, 11, 12, 13, 14, 15, 16, 17, 18, 19, 20, 21, 22, 23, 24, 25, 26, 27, 28, 29, 30, 31, 32, 33, 34, 35, 36, 37, 38, 39, 40, 41, 42, 43, 44, 45, 46, 47, 48, 49, 50, 51, 52, 53, 54, 55, 56, 57, 58, 59, 60, 61, 62, 63, 64, 65, 66, 67, 68, 69, 70, 71, 72, 73, 74, 75, 76, 77, 78, 79, 80, 81, 82, 83, 84, 85, 86, 87, 88, 89, 90, 91, 92, 93, 94, 95, 96, 97, 98, 99, 100, 101, 102, 103, 104, 105, 106, 107, 108, 109, 110, 111, 112, 113, 114, 115, 116, 117, 118, 119, 120, 121, 122, 123, 124, 125, 126, 127, 128, 129, 130, 131, 132, 133, 134, 135, 136, 137, 138, 139, 140, 141, 142, 143, 144, 145, 146, 147, 148, 149, 150, 151, 152, 153, 154, 155, 156, 157, 158, 159, 160, 161, 162, 163, 164],
      "LargestImagePixelValue": [1953, 1883, 1851, 1868, 1859, 1873, 1854, 1880, 1893, 1883, 1851, 1878, 1882, 1884, 1849, 1889, 1883, 1884, 1860, 1867, 1856, 1875, 1872, 1884, 1875, 1860, 1877, 1863, 1880, 1855, 1864, 1872, 1872, 1872, 1875, 1862, 1867, 1855, 1857, 1868, 1864, 1879, 1875, 1890, 1883, 1880, 1891, 1882, 1883, 1885, 1879, 1867, 1866, 1875, 1874, 1877, 1873, 1886, 1877, 1886, 1890, 1886, 1903, 1889, 1889, 1892, 1892, 1906, 1898, 1890, 1901, 1891, 1905, 1892, 1903, 1893, 1894, 1889, 1905, 1922, 1897, 1891, 1897, 1892, 1894, 1902, 1885, 1886, 1894, 1888, 1910, 1899, 1878, 1892, 1906, 1887, 1911, 1896, 1894, 1888, 1901, 1890, 1901, 1910, 1917, 1902, 1905, 1904, 1906, 1913, 1922, 1914, 1911, 1932, 1905, 1917, 1932, 1905, 1922, 1924, 1937, 1917, 1934, 1918, 1922, 1918, 1938, 1915, 1927, 1924, 1947, 1945, 1946, 1948, 1966, 1960, 1957, 1942, 1948, 1943, 1925, 1930, 1928, 1923, 1928, 1949, 1936, 1917, 1933, 1949, 1934, 1939, 1924, 1932, 1962, 1917, 1925, 1932, 1907, 1978, 1945, 1940, 1929, 1930],
      "WindowCenter": [752.0, 749.0, 750.0, 750.0, 750.0, 749.0, 749.0, 749.0, 748.0, 747.0, 747.0, 747.0, 748.0, 749.0, 748.0, 748.0, 748.0, 748.0, 748.0, 749.0, 748.0, 748.0, 748.0, 748.0, 748.0, 748.0, 749.0, 749.0, 748.0, 748.0, 749.0, 749.0, 749.0, 748.0, 748.0, 749.0, 748.0, 748.0, 748.0, 748.0, 747.0, 747.0, 747.0, 748.0, 749.0, 749.0, 749.0, 748.0, 749.0, 749.0, 750.0, 750.0, 749.0, 748.0, 749.0, 749.0, 748.0, 748.0, 748.0, 747.0, 748.0, 748.0, 748.0, 749.0, 749.0, 748.0, 748.0, 748.0, 748.0, 749.0, 749.0, 749.0, 748.0, 747.0, 747.0, 748.0, 747.0, 747.0, 747.0, 748.0, 750.0, 750.0, 749.0, 749.0, 749.0, 750.0, 751.0, 750.0, 749.0, 749.0, 750.0, 749.0, 749.0, 749.0, 749.0, 749.0, 750.0, 750.0, 750.0, 748.0, 748.0, 748.0, 749.0, 750.0, 750.0, 749.0, 748.0, 748.0, 748.0, 750.0, 750.0, 749.0, 748.0, 749.0, 749.0, 750.0, 749.0, 749.0, 750.0, 750.0, 750.0, 750.0, 748.0, 748.0, 749.0, 748.0, 749.0, 749.0, 749.0, 749.0, 749.0, 748.0, 749.0, 749.0, 750.0, 750.0, 749.0, 749.0, 750.0, 749.0, 749.0, 749.0, 749.0, 749.0, 750.0, 750.0, 750.0, 749.0, 749.0, 749.0, 749.0, 749.0, 749.0, 749.0, 750.0, 750.0, 750.0, 750.0, 750.0, 750.0, 751.0, 750.0, 750.0, 750.0],
      "WindowWidth": [1654.0, 1647.0, 1650.0, 1651.0, 1648.0, 1647.0, 1645.0, 1646.0, 1641.0, 1638.0, 1638.0, 1640.0, 1642.0, 1643.0, 1641.0, 1642.0, 1640.0, 1642.0, 1644.0, 1644.0, 1641.0, 1642.0, 1643.0, 1644.0, 1642.0, 1643.0, 1646.0, 1644.0, 1643.0, 1643.0, 1644.0, 1645.0, 1643.0, 1641.0, 1642.0, 1644.0, 1643.0, 1642.0, 1642.0, 1641.0, 1640.0, 1640.0, 1640.0, 1643.0, 1645.0, 1643.0, 1645.0, 1643.0, 1645.0, 1646.0, 1647.0, 1647.0, 1643.0, 1643.0, 1644.0, 1644.0, 1641.0, 1643.0, 1641.0, 1639.0, 1641.0, 1641.0, 1642.0, 1644.0, 1645.0, 1644.0, 1643.0, 1643.0, 1644.0, 1645.0, 1645.0, 1644.0, 1642.0, 1640.0, 1640.0, 1641.0, 1640.0, 1637.0, 1638.0, 1644.0, 1649.0, 1648.0, 1646.0, 1645.0, 1646.0, 1649.0, 1649.0, 1647.0, 1646.0, 1644.0, 1647.0, 1646.0, 1644.0, 1645.0, 1646.0, 1645.0, 1649.0, 1650.0, 1647.0, 1642.0, 1643.0, 1642.0, 1646.0, 1650.0, 1648.0, 1645.0, 1643.0, 1643.0, 1642.0, 1648.0, 1649.0, 1645.0, 1644.0, 1645.0, 1646.0, 1647.0, 1645.0, 1644.0, 1648.0, 1647.0, 1648.0, 1647.0, 1643.0, 1642.0, 1644.0, 1643.0, 1644.0, 1645.0, 1646.0, 1646.0, 1645.0, 1643.0, 1644.0, 1646.0, 1647.0, 1648.0, 1645.0, 1646.0, 1648.0, 1646.0, 1645.0, 1647.0, 1645.0, 1647.0, 1649.0, 1648.0, 1647.0, 1646.0, 1646.0, 1646.0, 1647.0, 1646.0, 1646.0, 1647.0, 1648.0, 1648.0, 1648.0, 1648.0, 1647.0, 1650.0, 1650.0, 1649.0, 1648.0, 1650.0]
    },
    "slices": {}
  }
}