{
  "AcquisitionMatrixPE": 64,
  "AcquisitionNumber": 1,
  "AcquisitionTime": "10:32:40.642500",
  "BandwidthPerPixelPhaseEncode": 33.967,
  "BaseResolution": 64,
  "CoilCombinationMethod": "Sum of Squares",
  "CoilString": "C:HEA;HEP",
  "ConversionSoftware": "dcm2niix",
  "ConversionSoftwareVersion": "v1.0.20220720",
  "DerivedVendorReportedEchoSpacing": 0.000460005,
  "DeviceSerialNumber": "35193",
  "DwellTime": 3.1e-06,
  "EchoTime": 0.03,
  "EffectiveEchoSpacing": 0.000460005,
  "FlipAngle": 90,
  "HeudiconvVersion": "1.1.6",
  "ImageOrientationPatientDICOM": [1, 0, 0, 0, 1, 0],
  "ImageOrientationText": "Tra",
  "ImageType": [
    "ORIGINAL",
    "PRIMARY",
    "M",
    "ND",
    "MOSAIC"
],
  "ImagingFrequency": 123.254,
  "InPlanePhaseEncodingDirectionDICOM": "COL",
  "InstitutionAddress": "Xinjiekouwai Street No 19,Beijing,Haidian District,CN,100875",
  "InstitutionName": "BNU MRI Center",
  "InstitutionalDepartmentName": "Department",
  "MRAcquisitionType": "2D",
  "MagneticFieldStrength": 3,
  "Manufacturer": "Siemens",
  "ManufacturersModelName": "TrioTim",
  "MatrixCoilMode": "SENSE",
  "Modality": "MR",
  "NonlinearGradientCorrection": false,
  "PartialFourier": 1,
  "PatientPosition": "HFS",
  "PercentPhaseFOV": 100,
  "PercentSampling": 100,
  "PhaseEncodingDirection": "j-",
  "PhaseEncodingSteps": 64,
  "PhaseResolution": 1,
  "PixelBandwidth": 2520,
  "ProcedureStepDescription": "BNU_cst_2015^Guo.TaoMei",
  "ProtocolName": "ge_func_3x3x4_164",
  "PulseSequenceDetails": "%SiemensSeq%\\ep2d_bold",
  "ReceiveCoilName": "HeadMatrix",
  "ReconMatrixPE": 64,
  "RepetitionTime": 2,
  "SAR": 0.123799,
  "ScanOptions": "FS",
  "ScanningSequence": "EP",
  "SequenceName": "*epfid2d1_64",
  "SequenceVariant": "SK",
  "SeriesDescription": "ge_func_3x3x4_164",
  "SeriesNumber": 5,
  "ShimSetting": [-4533, -19402, -9835, 1121, -204, -589, -47, -95],
  "SliceThickness": 4,
  "SliceTiming": [0, 1.0325, 0.06, 1.095, 0.12, 1.155, 0.1825, 1.215, 0.2425, 1.2775, 0.3025, 1.3375, 0.365, 1.3975, 0.425, 1.46, 0.485, 1.52, 0.5475, 1.58, 0.6075, 1.6425, 0.6675, 1.7025, 0.73, 1.7625, 0.79, 1.825, 0.85, 1.885, 0.9125, 1.945, 0.9725],
  "SoftwareVersions": "syngo MR B17",
  "SpacingBetweenSlices": 4.6,
  "StationName": "MRC35193",
  "TaskName": "LanguageControl",
  "TotalReadoutTime": 0.0289803,
  "TxRefAmp": 322.082,
  "dcmmeta_affine": [
    [-3.125, 0.0, 0.0, 101.34939575195312],
    [0.0, 3.125, 0.0, -88.10391235351562],
    [0.0, 0.0, 4.599999904632568, -67.5277099609375],
    [0.0, 0.0, 0.0, 1.0]
],
  "dcmmeta_reorient_transform": [
    [0.0, -1.0, 0.0, 63.0],
    [1.0, 0.0, 0.0, 0.0],
    [0.0, 0.0, 1.0, 0.0],
    [0.0, 0.0, 0.0, 1.0]
],
  "dcmmeta_shape": [64, 64, 33, 164],
  "dcmmeta_slice_dim": 2,
  "dcmmeta_version": 0.6,
  "global": {
    "const": {
      "AcquisitionMatrix": [64, 0, 0, 64],
      "AngioFlag": "N",
      "BitsAllocated": 16,
      "BitsStored": 12,
      "Columns": 384,
      "EchoNumbers": 1,
      "EchoTime": 30.0,
      "EchoTrainLength": 1,
      "FlipAngle": 90.0,
      "HighBit": 11,
      "ImageOrientationPatient": [1.0, 0.0, 0.0, 0.0, 1.0, 0.0],
      "ImagePositionPatient": [-601.34939754009, -608.77108478546, -67.527709960938],
      "ImageType": [
        "ORIGINAL",
        "PRIMARY",
        "M",
        "ND",
        "MOSAIC"
],
      "ImagedNucleus": "1H",
      "ImagingFrequency": 123.253656,
      "InPlanePhaseEncodingDirection": "COL",
      "MRAcquisitionType": "2D",
      "MagneticFieldStrength": 3.0,
      "Manufacturer": "SIEMENS",
      "ManufacturerModelName": "TrioTim",
      "Modality": "MR",
      "NumberOfAverages": 1.0,
      "NumberOfPhaseEncodingSteps": 64,
      "PercentPhaseFieldOfView": 100.0,
      "PercentSampling": 100.0,
      "PerformedProcedureStepStartTime": "101102.031000",
      "PhotometricInterpretation": "MONOCHROME2",
      "PixelBandwidth": 2520.0,
      "PixelRepresentation": 0,
      "PixelSpacing": [3.125, 3.125],
      "ProtocolName": "ge_func_3x3x4_164",
      "RepetitionTime": 2000.0,
      "Rows": 384,
      "SAR": 0.12379904706031,
      "SamplesPerPixel": 1,
      "ScanOptions": "FS",
      "ScanningSequence": "EP",
      "SequenceName": "*epfid2d1_64",
      "SequenceVariant": "SK",
      "SeriesDescription": "ge_func_3x3x4_164",
      "SeriesNumber": 5,
      "SeriesTime": "103322.171000",
      "SliceLocation": -67.527709960938,
      "SliceThickness": 4.0,
      "SmallestImagePixelValue": 0,
      "SoftwareVersions": "syngo MR B17",
      "SpacingBetweenSlices": 4.5999999046326,
      "SpecificCharacterSet": "ISO_IR 100",
      "StudyID": "1",
      "StudyTime": "101101.937000",
      "TransmitCoilName": "Body",
      "VariableFlipAngleFlag": "N",
      "WindowCenterWidthExplanation": "Algo1",
      "dBdt": 0.0},
    "slices": {}
  },
  "time": {
    "samples": {
      "AcquisitionNumber": [1, 2, 3, 4, 5, 6, 7, 8, 9, 10, 11, 12, 13, 14, 15, 16, 17, 18, 19, 20, 21, 22, 23, 24, 25, 26, 27, 28, 29, 30, 31, 32, 33, 34, 35, 36, 37, 38, 39, 40, 41, 42, 43, 44, 45, 46, 47, 48, 49, 50, 51, 52, 53, 54, 55, 56, 57, 58, 59, 60, 61, 62, 63, 64, 65, 66, 67, 68, 69, 70, 71, 72, 73, 74, 75, 76, 77, 78, 79, 80, 81, 82, 83, 84, 85, 86, 87, 88, 89, 90, 91, 92, 93, 94, 95, 96, 97, 98, 99, 100, 101, 102, 103, 104, 105, 106, 107, 108, 109, 110, 111, 112, 113, 114, 115, 116, 117, 118, 119, 120, 121, 122, 123, 124, 125, 126, 127, 128, 129, 130, 131, 132, 133, 134, 135, 136, 137, 138, 139, 140, 141, 142, 143, 144, 145, 146, 147, 148, 149, 150, 151, 152, 153, 154, 155, 156, 157, 158, 159, 160, 161, 162, 163, 164],
      "AcquisitionTime": ["103240.642500", "103242.650000", "103244.657500", "103246.665000", "103248.675000", "103250.682500", "103252.690000", "103254.697500", "103256.705000", "103258.715000", "103300.722500", "103302.730000", "103304.737500", "103306.747500", "103308.755000", "103310.762500", "103312.770000", "103314.777500", "103316.787500", "103318.795000", "103320.802500", "103322.810000", "103324.817500", "103326.827500", "103328.835000", "103330.842500", "103332.850000", "103334.860000", "103336.867500", "103338.875000", "103340.882500", "103342.890000", "103344.900000", "103346.907500", "103348.915000", "103350.922500", "103352.930000", "103354.940000", "103356.947500", "103358.955000", "103400.962500", "103402.972500", "103404.980000", "103406.987500", "103408.995000", "103411.002500", "103413.012500", "103415.020000", "103417.027500", "103419.035000", "103421.042500", "103423.052500", "103425.060000", "103427.067500", "103429.075000", "103431.082500", "103433.092500", "103435.100000", "103437.107500", "103439.115000", "103441.125000", "103443.132500", "103445.140000", "103447.147500", "103449.155000", "103451.165000", "103453.172500", "103455.180000", "103457.187500", "103459.195000", "103501.205000", "103503.212500", "103505.220000", "103507.227500", "103509.237500", "103511.245000", "103513.252500", "103515.260000", "103517.267500", "103519.277500", "103521.285000", "103523.292500", "103525.300000", "103527.307500", "103529.317500", "103531.325000", "103533.332500", "103535.340000", "103537.350000", "103539.357500", "103541.365000", "103543.372500", "103545.380000", "103547.390000", "103549.397500", "103551.405000", "103553.412500", "103555.420000", "103557.430000", "103559.437500", "103601.445000", "103603.452500", "103605.460000", "103607.470000", "103609.477500", "103611.485000", "103613.492500", "103615.502500", "103617.510000", "103619.517500", "103621.525000", "103623.532500", "103625.542500", "103627.550000", "103629.557500", "103631.565000", "103633.572500", "103635.582500", "103637.590000", "103639.597500", "103641.605000", "103643.615000", "103645.622500", "103647.630000", "103649.637500", "103651.645000", "103653.655000", "103655.662500", "103657.670000", "103659.677500", "103701.685000", "103703.695000", "103705.702500", "103707.710000", "103709.717500", "103711.727500", "103713.735000", "103715.742500", "103717.750000", "103719.757500", "103721.767500", "103723.775000", "103725.782500", "103727.790000", "103729.797500", "103731.807500", "103733.815000", "103735.822500", "103737.830000", "103739.837500", "103741.847500", "103743.855000", "103745.862500", "103747.870000", "103749.880000", "103751.887500", "103753.895000", "103755.902500", "103757.910000", "103759.920000", "103801.927500", "103803.935000", "103805.942500", "103807.950000"],
      "ContentTime": ["103322.171000", "103322.171000", "103322.171000", "103322.171000", "103322.187000", "103322.187000", "103322.187000", "103322.203000", "103322.203000", "103322.203000", "103322.203000", "103322.203000", "103322.203000", "103322.203000", "103322.203000", "103322.218000", "103322.218000", "103322.218000", "103322.218000", "103322.218000", "103402.171000", "103402.171000", "103402.171000", "103402.171000", "103402.171000", "103402.171000", "103402.187000", "103402.187000", "103402.187000", "103402.187000", "103402.187000", "103402.203000", "103402.203000", "103402.203000", "103402.203000", "103402.203000", "103402.203000", "103402.203000", "103402.203000", "103402.203000", "103442.171000", "103442.171000", "103442.171000", "103442.171000", "103442.171000", "103442.171000", "103442.171000", "103442.171000", "103442.187000", "103442.187000", "103442.187000", "103442.187000", "103442.187000", "103442.187000", "103442.203000", "103442.203000", "103442.203000", "103442.203000", "103442.203000", "103442.203000", "103522.171000", "103522.171000", "103522.171000", "103522.171000", "103522.187000", "103522.187000", "103522.187000", "103522.187000", "103522.187000", "103522.203000", "103522.203000", "103522.203000", "103522.218000", "103522.218000", "103522.218000", "103522.218000", "103522.218000", "103522.218000", "103522.234000", "103522.234000", "103602.171000", "103602.171000", "103602.171000", "103602.171000", "103602.187000", "103602.187000", "103602.187000", "103602.187000", "103602.187000", "103602.187000", "103602.203000", "103602.203000", "103602.203000", "103602.203000", "103602.203000", "103602.203000", "103602.203000", "103602.203000", "103602.218000", "103602.218000", "103642.171000", "103642.171000", "103642.171000", "103642.171000", "103642.171000", "103642.187000", "103642.187000", "103642.187000", "103642.187000", "103642.187000", "103642.187000", "103642.187000", "103642.187000", "103642.203000", "103642.203000", "103642.203000", "103642.203000", "103642.203000", "103642.203000", "103642.218000", "103722.171000", "103722.171000", "103722.171000", "103722.171000", "103722.171000", "103722.171000", "103722.171000", "103722.171000", "103722.187000", "103722.187000", "103722.187000", "103722.187000", "103722.187000", "103722.187000", "103722.187000", "103722.187000", "103722.187000", "103722.203000", "103722.203000", "103722.203000", "103802.171000", "103802.171000", "103802.171000", "103802.171000", "103802.171000", "103802.171000", "103802.187000", "103802.187000", "103802.187000", "103802.187000", "103802.187000", "103802.187000", "103802.187000", "103802.187000", "103802.203000", "103802.203000", "103802.203000", "103802.203000", "103802.203000", "103802.203000", "103808.828000", "103808.843000", "103808.843000", "103808.843000"],
      "InstanceCreationTime": ["103322.171000", "103322.171000", "103322.171000", "103322.171000", "103322.187000", "103322.187000", "103322.187000", "103322.203000", "103322.203000", "103322.203000", "103322.203000", "103322.203000", "103322.203000", "103322.203000", "103322.203000", "103322.218000", "103322.218000", "103322.218000", "103322.218000", "103322.218000", "103402.171000", "103402.171000", "103402.171000", "103402.171000", "103402.171000", "103402.171000", "103402.187000", "103402.187000", "103402.187000", "103402.187000", "103402.187000", "103402.203000", "103402.203000", "103402.203000", "103402.203000", "103402.203000", "103402.203000", "103402.203000", "103402.203000", "103402.203000", "103442.171000", "103442.171000", "103442.171000", "103442.171000", "103442.171000", "103442.171000", "103442.171000", "103442.171000", "103442.187000", "103442.187000", "103442.187000", "103442.187000", "103442.187000", "103442.187000", "103442.203000", "103442.203000", "103442.203000", "103442.203000", "103442.203000", "103442.203000", "103522.171000", "103522.171000", "103522.171000", "103522.171000", "103522.187000", "103522.187000", "103522.187000", "103522.187000", "103522.187000", "103522.203000", "103522.203000", "103522.203000", "103522.218000", "103522.218000", "103522.218000", "103522.218000", "103522.218000", "103522.218000", "103522.234000", "103522.234000", "103602.171000", "103602.171000", "103602.171000", "103602.171000", "103602.187000", "103602.187000", "103602.187000", "103602.187000", "103602.187000", "103602.187000", "103602.203000", "103602.203000", "103602.203000", "103602.203000", "103602.203000", "103602.203000", "103602.203000", "103602.203000", "103602.218000", "103602.218000", "103642.171000", "103642.171000", "103642.171000", "103642.171000", "103642.171000", "103642.187000", "103642.187000", "103642.187000", "103642.187000", "103642.187000", "103642.187000", "103642.187000", "103642.187000", "103642.203000", "103642.203000", "103642.203000", "103642.203000", "103642.203000", "103642.203000", "103642.218000", "103722.171000", "103722.171000", "103722.171000", "103722.171000", "103722.171000", "103722.171000", "103722.171000", "103722.171000", "103722.187000", "103722.187000", "103722.187000", "103722.187000", "103722.187000", "103722.187000", "103722.187000", "103722.187000", "103722.187000", "103722.203000", "103722.203000", "103722.203000", "103802.171000", "103802.171000", "103802.171000", "103802.171000", "103802.171000", "103802.171000", "103802.187000", "103802.187000", "103802.187000", "103802.187000", "103802.187000", "103802.187000", "103802.187000", "103802.187000", "103802.203000", "103802.203000", "103802.203000", "103802.203000", "103802.203000", "103802.203000", "103808.828000", "103808.843000", "103808.843000", "103808.843000"],
      "InstanceNumber": [1, 2, 3, 4, 5, 6, 7, 8, 9, 10, 11, 12, 13, 14, 15, 16, 17, 18, 19, 20, 21, 22, 23, 24, 25, 26, 27, 28, 29, 30, 31, 32, 33, 34, 35, 36, 37, 38, 39, 40, 41, 42, 43, 44, 45, 46, 47, 48, 49, 50, 51, 52, 53, 54, 55, 56, 57, 58, 59, 60, 61, 62, 63, 64, 65, 66, 67, 68, 69, 70, 71, 72, 73, 74, 75, 76, 77, 78, 79, 80, 81, 82, 83, 84, 85, 86, 87, 88, 89, 90, 91, 92, 93, 94, 95, 96, 97, 98, 99, 100, 101, 102, 103, 104, 105, 106, 107, 108, 109, 110, 111, 112, 113, 114, 115, 116, 117, 118, 119, 120, 121, 122, 123, 124, 125, 126, 127, 128, 129, 130, 131, 132, 133, 134, 135, 136, 137, 138, 139, 140, 141, 142, 143, 144, 145, 146, 147, 148, 149, 150, 151, 152, 153, 154, 155, 156, 157, 158, 159, 160, 161, 162, 163, 164],
      "LargestImagePixelValue": [2021, 2294, 1917, 1921, 1894, 1889, 1887, 1895, 1909, 1911, 1916, 1905, 1884, 1898, 1913, 1903, 1912, 1917, 1925, 1909, 1915, 1899, 1916, 1916, 1904, 1896, 1911, 1891, 1885, 1891, 1888, 1914, 1892, 1931, 1915, 1933, 1941, 1914, 1915, 1923, 1896, 1891, 1908, 1901, 1916, 1932, 1910, 1910, 1929, 1924, 1924, 1906, 1906, 1923, 1904, 1906, 1931, 1923, 1942, 1928, 1916, 1928, 1924, 1937, 1941, 1959, 1952, 1929, 1956, 1937, 1934, 1920, 1935, 1930, 1917, 1930, 1933, 1938, 1942, 1955, 1951, 1927, 1932, 1966, 1957, 1944, 1937, 1958, 1931, 1941, 1960, 1945, 1946, 1966, 1971, 1957, 1963, 1975, 1961, 1946, 1945, 1940, 1947, 1946, 1948, 1967, 1980, 1963, 1964, 1961, 1955, 1971, 1953, 1958, 1953, 1956, 1967, 1985, 1962, 1971, 1956, 1964, 1974, 1972, 1961, 1972, 1970, 1944, 1960, 1980, 1971, 1988, 1976, 1975, 1963, 1978, 1963, 1987, 1966, 1967, 1949, 1968, 1979, 1962, 1988, 1975, 1977, 1984, 1957, 1972, 1978, 1995, 1966, 1993, 1981, 1976, 2009, 1969, 1977, 1987, 1986, 1984, 1984, 1974],
      "WindowCenter": [756.0, 754.0, 753.0, 752.0, 752.0, 750.0, 750.0, 749.0, 750.0, 750.0, 751.0, 750.0, 750.0, 750.0, 750.0, 750.0, 750.0, 750.0, 750.0, 750.0, 750.0, 750.0, 751.0, 751.0, 751.0, 751.0, 752.0, 753.0, 753.0, 752.0, 752.0, 752.0, 752.0, 751.0, 750.0, 751.0, 751.0, 751.0, 752.0, 752.0, 751.0, 752.0, 752.0, 752.0, 752.0, 752.0, 751.0, 751.0, 750.0, 751.0, 753.0, 754.0, 754.0, 753.0, 752.0, 752.0, 752.0, 752.0, 753.0, 752.0, 753.0, 752.0, 752.0, 751.0, 751.0, 751.0, 751.0, 750.0, 750.0, 750.0, 750.0, 751.0, 752.0, 752.0, 752.0, 752.0, 752.0, 752.0, 752.0, 751.0, 751.0, 751.0, 752.0, 752.0, 752.0, 752.0, 752.0, 752.0, 752.0, 752.0, 753.0, 752.0, 752.0, 752.0, 752.0, 752.0, 753.0, 753.0, 752.0, 752.0, 752.0, 752.0, 753.0, 753.0, 753.0, 753.0, 752.0, 752.0, 752.0, 751.0, 752.0, 752.0, 751.0, 752.0, 752.0, 752.0, 753.0, 752.0, 752.0, 752.0, 752.0, 752.0, 752.0, 752.0, 752.0, 752.0, 752.0, 752.0, 753.0, 752.0, 752.0, 752.0, 752.0, 752.0, 752.0, 752.0, 752.0, 753.0, 753.0, 752.0, 752.0, 751.0, 751.0, 751.0, 751.0, 751.0, 752.0, 752.0, 752.0, 753.0, 753.0, 753.0, 753.0, 753.0, 752.0, 753.0, 753.0, 752.0, 751.0, 751.0, 752.0, 752.0, 753.0, 753.0],
      "WindowWidth": [1668.0, 1662.0, 1658.0, 1656.0, 1654.0, 1650.0, 1649.0, 1648.0, 1649.0, 1649.0, 1652.0, 1648.0, 1650.0, 1649.0, 1649.0, 1649.0, 1649.0, 1650.0, 1649.0, 1648.0, 1650.0, 1650.0, 1653.0, 1653.0, 1652.0, 1653.0, 1656.0, 1659.0, 1659.0, 1656.0, 1654.0, 1656.0, 1655.0, 1653.0, 1650.0, 1652.0, 1653.0, 1654.0, 1654.0, 1655.0, 1654.0, 1655.0, 1656.0, 1655.0, 1656.0, 1656.0, 1654.0, 1652.0, 1650.0, 1654.0, 1659.0, 1661.0, 1661.0, 1657.0, 1656.0, 1657.0, 1656.0, 1655.0, 1657.0, 1655.0, 1658.0, 1657.0, 1655.0, 1652.0, 1652.0, 1653.0, 1652.0, 1649.0, 1651.0, 1651.0, 1651.0, 1653.0, 1656.0, 1656.0, 1656.0, 1657.0, 1655.0, 1655.0, 1654.0, 1654.0, 1653.0, 1653.0, 1656.0, 1655.0, 1655.0, 1656.0, 1657.0, 1655.0, 1655.0, 1656.0, 1658.0, 1656.0, 1656.0, 1656.0, 1657.0, 1657.0, 1657.0, 1658.0, 1656.0, 1655.0, 1655.0, 1656.0, 1658.0, 1658.0, 1658.0, 1658.0, 1657.0, 1656.0, 1654.0, 1654.0, 1655.0, 1654.0, 1654.0, 1656.0, 1656.0, 1656.0, 1657.0, 1657.0, 1655.0, 1655.0, 1655.0, 1655.0, 1655.0, 1654.0, 1654.0, 1657.0, 1656.0, 1657.0, 1658.0, 1657.0, 1657.0, 1656.0, 1656.0, 1655.0, 1655.0, 1655.0, 1655.0, 1658.0, 1659.0, 1656.0, 1654.0, 1653.0, 1653.0, 1653.0, 1652.0, 1654.0, 1656.0, 1656.0, 1657.0, 1659.0, 1659.0, 1659.0, 1660.0, 1659.0, 1657.0, 1657.0, 1659.0, 1656.0, 1652.0, 1653.0, 1655.0, 1657.0, 1659.0, 1658.0]
    },
    "slices": {}
  }
}