{
  "AcquisitionMatrixPE": 64,
  "AcquisitionNumber": 1,
  "AcquisitionTime": "13:30:38.160000",
  "BandwidthPerPixelPhaseEncode": 33.967,
  "BaseResolution": 64,
  "CoilCombinationMethod": "Sum of Squares",
  "CoilString": "C:HEA;HEP",
  "ConversionSoftware": "dcm2niix",
  "ConversionSoftwareVersion": "v1.0.20220720",
  "DerivedVendorReportedEchoSpacing": 0.000460005,
  "DeviceSerialNumber": "35193",
  "DwellTime": 3.1e-06,
  "EchoTime": 0.03,
  "EffectiveEchoSpacing": 0.000460005,
  "FlipAngle": 90,
  "HeudiconvVersion": "1.1.6",
  "ImageOrientationPatientDICOM": [0.999907, 0.00872654, -0.0104714, -0.00872606, 0.999962, 9.13823e-05],
  "ImageOrientationText": "Tra>Sag(-0.6)",
  "ImageType": [
    "ORIGINAL",
    "PRIMARY",
    "M",
    "ND",
    "MOSAIC"
],
  "ImagingFrequency": 123.254,
  "InPlanePhaseEncodingDirectionDICOM": "COL",
  "InstitutionAddress": "Xinjiekouwai Street No 19,Beijing,Haidian District,CN,100875",
  "InstitutionName": "BNU MRI Center",
  "InstitutionalDepartmentName": "Department",
  "MRAcquisitionType": "2D",
  "MagneticFieldStrength": 3,
  "Manufacturer": "Siemens",
  "ManufacturersModelName": "TrioTim",
  "MatrixCoilMode": "SENSE",
  "Modality": "MR",
  "NonlinearGradientCorrection": false,
  "PartialFourier": 1,
  "PatientPosition": "HFS",
  "PercentPhaseFOV": 100,
  "PercentSampling": 100,
  "PhaseEncodingDirection": "j-",
  "PhaseEncodingSteps": 64,
  "PhaseResolution": 1,
  "PixelBandwidth": 2520,
  "ProcedureStepDescription": "BNU_cst_2015^Guo.TaoMei",
  "ProtocolName": "ge_func_3x3x4_164",
  "PulseSequenceDetails": "%SiemensSeq%\\ep2d_bold",
  "ReceiveCoilName": "HeadMatrix",
  "ReconMatrixPE": 64,
  "RepetitionTime": 2,
  "SAR": 0.122761,
  "ScanOptions": "FS",
  "ScanningSequence": "EP",
  "SequenceName": "*epfid2d1_64",
  "SequenceVariant": "SK",
  "SeriesDescription": "ge_func_3x3x4_164",
  "SeriesNumber": 5,
  "ShimSetting": [-4510, -19416, -9846, 974, -236, -364, -55, -20],
  "SliceThickness": 4,
  "SliceTiming": [0, 1.035, 0.06, 1.095, 0.1225, 1.155, 0.1825, 1.2175, 0.2425, 1.2775, 0.305, 1.3375, 0.365, 1.4, 0.425, 1.46, 0.4875, 1.52, 0.5475, 1.5825, 0.6075, 1.6425, 0.67, 1.7025, 0.73, 1.765, 0.79, 1.825, 0.8525, 1.885, 0.9125, 1.9475, 0.9725],
  "SoftwareVersions": "syngo MR B17",
  "SpacingBetweenSlices": 4.6,
  "StationName": "MRC35193",
  "TaskName": "LanguageControl",
  "TotalReadoutTime": 0.0289803,
  "TxRefAmp": 328.235,
  "dcmmeta_affine": [
    [-3.1247096061706543, -0.027268948033452034, -0.04817020893096924, 104.3055648803711],
    [-0.027270441874861717, 3.1248810291290283, -7.765753040622769e-10, -84.52877807617188],
    [-0.0327230803668499, -0.0002855696657206863, 4.599747657775879, -63.09419250488281],
    [0.0, 0.0, 0.0, 1.0]
],
  "dcmmeta_reorient_transform": [
    [0.0, -1.0, 0.0, 63.0],
    [1.0, 0.0, 0.0, 0.0],
    [0.0, 0.0, 1.0, 0.0],
    [0.0, 0.0, 0.0, 1.0]
],
  "dcmmeta_shape": [64, 64, 33, 164],
  "dcmmeta_slice_dim": 2,
  "dcmmeta_version": 0.6,
  "global": {
    "const": {
      "AcquisitionMatrix": [64, 0, 0, 64],
      "AngioFlag": "N",
      "BitsAllocated": 16,
      "BitsStored": 12,
      "Columns": 384,
      "EchoNumbers": 1,
      "EchoTime": 30.0,
      "EchoTrainLength": 1,
      "FlipAngle": 90.0,
      "HighBit": 11,
      "ImageOrientationPatient": [0.99990709446167, 0.00872654164885, -0.010471385585, -0.0087260631688, 0.9999619230105, 9.138229318e-05],
      "ImagePositionPatient": [-598.17813719881, -616.682957946, -57.922182656238],
      "ImageType": [
        "ORIGINAL",
        "PRIMARY",
        "M",
        "ND",
        "MOSAIC"
],
      "ImagedNucleus": "1H",
      "ImagingFrequency": 123.253731,
      "InPlanePhaseEncodingDirection": "COL",
      "MRAcquisitionType": "2D",
      "MagneticFieldStrength": 3.0,
      "Manufacturer": "SIEMENS",
      "ManufacturerModelName": "TrioTim",
      "Modality": "MR",
      "NumberOfAverages": 1.0,
      "NumberOfPhaseEncodingSteps": 64,
      "PercentPhaseFieldOfView": 100.0,
      "PercentSampling": 100.0,
      "PerformedProcedureStepStartTime": "130916.140000",
      "PhotometricInterpretation": "MONOCHROME2",
      "PixelBandwidth": 2520.0,
      "PixelRepresentation": 0,
      "PixelSpacing": [3.125, 3.125],
      "ProtocolName": "ge_func_3x3x4_164",
      "RepetitionTime": 2000.0,
      "Rows": 384,
      "SAR": 0.12276131820228,
      "SamplesPerPixel": 1,
      "ScanOptions": "FS",
      "ScanningSequence": "EP",
      "SequenceName": "*epfid2d1_64",
      "SequenceVariant": "SK",
      "SeriesDescription": "ge_func_3x3x4_164",
      "SeriesNumber": 5,
      "SeriesTime": "133132.328000",
      "SliceLocation": -64.182999286435,
      "SliceThickness": 4.0,
      "SmallestImagePixelValue": 0,
      "SoftwareVersions": "syngo MR B17",
      "SpacingBetweenSlices": 4.6000001170886,
      "SpecificCharacterSet": "ISO_IR 100",
      "StudyID": "1",
      "StudyTime": "130916.062000",
      "TransmitCoilName": "Body",
      "VariableFlipAngleFlag": "N",
      "WindowCenterWidthExplanation": "Algo1",
      "dBdt": 0.0},
    "slices": {}
  },
  "time": {
    "samples": {
      "AcquisitionNumber": [1, 2, 3, 4, 5, 6, 7, 8, 9, 10, 11, 12, 13, 14, 15, 16, 17, 18, 19, 20, 21, 22, 23, 24, 25, 26, 27, 28, 29, 30, 31, 32, 33, 34, 35, 36, 37, 38, 39, 40, 41, 42, 43, 44, 45, 46, 47, 48, 49, 50, 51, 52, 53, 54, 55, 56, 57, 58, 59, 60, 61, 62, 63, 64, 65, 66, 67, 68, 69, 70, 71, 72, 73, 74, 75, 76, 77, 78, 79, 80, 81, 82, 83, 84, 85, 86, 87, 88, 89, 90, 91, 92, 93, 94, 95, 96, 97, 98, 99, 100, 101, 102, 103, 104, 105, 106, 107, 108, 109, 110, 111, 112, 113, 114, 115, 116, 117, 118, 119, 120, 121, 122, 123, 124, 125, 126, 127, 128, 129, 130, 131, 132, 133, 134, 135, 136, 137, 138, 139, 140, 141, 142, 143, 144, 145, 146, 147, 148, 149, 150, 151, 152, 153, 154, 155, 156, 157, 158, 159, 160, 161, 162, 163, 164],
      "AcquisitionTime": ["133038.160000", "133040.167500", "133042.175000", "133044.185000", "133046.192500", "133048.200000", "133050.207500", "133052.215000", "133054.225000", "133056.232500", "133058.240000", "133100.247500", "133102.257500", "133104.265000", "133106.272500", "133108.280000", "133110.287500", "133112.297500", "133114.305000", "133116.312500", "133118.320000", "133120.327500", "133122.337500", "133124.345000", "133126.352500", "133128.360000", "133130.370000", "133132.377500", "133134.385000", "133136.392500", "133138.400000", "133140.410000", "133142.417500", "133144.425000", "133146.432500", "133148.440000", "133150.450000", "133152.457500", "133154.465000", "133156.472500", "133158.482500", "133200.490000", "133202.497500", "133204.505000", "133206.512500", "133208.522500", "133210.530000", "133212.537500", "133214.545000", "133216.552500", "133218.562500", "133220.570000", "133222.577500", "133224.585000", "133226.592500", "133228.602500", "133230.610000", "133232.617500", "133234.625000", "133236.635000", "133238.642500", "133240.650000", "133242.657500", "133244.665000", "133246.675000", "133248.682500", "133250.690000", "133252.697500", "133254.705000", "133256.715000", "133258.722500", "133300.730000", "133302.737500", "133304.747500", "133306.755000", "133308.762500", "133310.770000", "133312.777500", "133314.787500", "133316.795000", "133318.802500", "133320.810000", "133322.817500", "133324.827500", "133326.835000", "133328.842500", "133330.850000", "133332.860000", "133334.867500", "133336.875000", "133338.882500", "133340.890000", "133342.900000", "133344.907500", "133346.915000", "133348.922500", "133350.930000", "133352.940000", "133354.947500", "133356.955000", "133358.962500", "133400.972500", "133402.980000", "133404.987500", "133406.995000", "133409.002500", "133411.012500", "133413.020000", "133415.027500", "133417.035000", "133419.042500", "133421.052500", "133423.060000", "133425.067500", "133427.075000", "133429.082500", "133431.092500", "133433.100000", "133435.107500", "133437.115000", "133439.125000", "133441.132500", "133443.140000", "133445.147500", "133447.155000", "133449.165000", "133451.172500", "133453.180000", "133455.187500", "133457.195000", "133459.205000", "133501.212500", "133503.220000", "133505.227500", "133507.237500", "133509.245000", "133511.252500", "133513.260000", "133515.267500", "133517.277500", "133519.285000", "133521.292500", "133523.300000", "133525.307500", "133527.317500", "133529.325000", "133531.332500", "133533.340000", "133535.350000", "133537.357500", "133539.365000", "133541.372500", "133543.380000", "133545.390000", "133547.397500", "133549.405000", "133551.412500", "133553.420000", "133555.430000", "133557.437500", "133559.445000", "133601.452500", "133603.460000", "133605.470000"],
      "ContentTime": ["133132.328000", "133132.343000", "133132.343000", "133132.343000", "133132.343000", "133132.343000", "133132.343000", "133132.343000", "133132.343000", "133132.343000", "133132.359000", "133132.359000", "133132.359000", "133132.359000", "133132.359000", "133132.375000", "133132.375000", "133132.375000", "133132.375000", "133132.375000", "133132.375000", "133132.375000", "133132.375000", "133132.390000", "133132.390000", "133132.390000", "133212.328000", "133212.328000", "133212.328000", "133212.328000", "133212.328000", "133212.343000", "133212.343000", "133212.343000", "133212.343000", "133212.343000", "133212.343000", "133212.343000", "133212.343000", "133212.359000", "133212.359000", "133212.359000", "133212.359000", "133212.359000", "133212.359000", "133212.359000", "133252.328000", "133252.328000", "133252.343000", "133252.343000", "133252.343000", "133252.343000", "133252.343000", "133252.343000", "133252.359000", "133252.359000", "133252.359000", "133252.375000", "133252.375000", "133252.375000", "133252.375000", "133252.375000", "133252.375000", "133252.375000", "133252.375000", "133252.390000", "133332.328000", "133332.328000", "133332.328000", "133332.343000", "133332.343000", "133332.343000", "133332.343000", "133332.343000", "133332.343000", "133332.343000", "133332.359000", "133332.359000", "133332.359000", "133332.359000", "133332.359000", "133332.359000", "133332.359000", "133332.359000", "133332.375000", "133332.375000", "133412.328000", "133412.328000", "133412.343000", "133412.343000", "133412.343000", "133412.343000", "133412.359000", "133412.359000", "133412.359000", "133412.359000", "133412.359000", "133412.375000", "133412.375000", "133412.375000", "133412.375000", "133412.375000", "133412.375000", "133412.375000", "133412.375000", "133412.390000", "133452.328000", "133452.328000", "133452.328000", "133452.328000", "133452.343000", "133452.343000", "133452.343000", "133452.343000", "133452.343000", "133452.343000", "133452.343000", "133452.343000", "133452.359000", "133452.359000", "133452.359000", "133452.359000", "133452.359000", "133452.375000", "133452.375000", "133452.375000", "133532.328000", "133532.328000", "133532.343000", "133532.343000", "133532.343000", "133532.343000", "133532.343000", "133532.359000", "133532.359000", "133532.359000", "133532.359000", "133532.359000", "133532.359000", "133532.375000", "133532.375000", "133532.375000", "133532.375000", "133532.375000", "133532.390000", "133532.390000", "133606.625000", "133606.625000", "133606.625000", "133606.640000", "133606.640000", "133606.640000", "133606.640000", "133606.656000", "133606.656000", "133606.656000", "133606.656000", "133606.656000", "133606.656000", "133606.656000", "133606.656000", "133606.671000", "133606.671000", "133606.671000"],
      "InstanceCreationTime": ["133132.328000", "133132.343000", "133132.343000", "133132.343000", "133132.343000", "133132.343000", "133132.343000", "133132.343000", "133132.343000", "133132.343000", "133132.359000", "133132.359000", "133132.359000", "133132.359000", "133132.359000", "133132.375000", "133132.375000", "133132.375000", "133132.375000", "133132.375000", "133132.375000", "133132.375000", "133132.375000", "133132.390000", "133132.390000", "133132.390000", "133212.328000", "133212.328000", "133212.328000", "133212.328000", "133212.328000", "133212.343000", "133212.343000", "133212.343000", "133212.343000", "133212.343000", "133212.343000", "133212.343000", "133212.343000", "133212.359000", "133212.359000", "133212.359000", "133212.359000", "133212.359000", "133212.359000", "133212.359000", "133252.328000", "133252.328000", "133252.343000", "133252.343000", "133252.343000", "133252.343000", "133252.343000", "133252.343000", "133252.359000", "133252.359000", "133252.359000", "133252.375000", "133252.375000", "133252.375000", "133252.375000", "133252.375000", "133252.375000", "133252.375000", "133252.375000", "133252.390000", "133332.328000", "133332.328000", "133332.328000", "133332.343000", "133332.343000", "133332.343000", "133332.343000", "133332.343000", "133332.343000", "133332.343000", "133332.359000", "133332.359000", "133332.359000", "133332.359000", "133332.359000", "133332.359000", "133332.359000", "133332.359000", "133332.375000", "133332.375000", "133412.328000", "133412.328000", "133412.343000", "133412.343000", "133412.343000", "133412.343000", "133412.359000", "133412.359000", "133412.359000", "133412.359000", "133412.359000", "133412.375000", "133412.375000", "133412.375000", "133412.375000", "133412.375000", "133412.375000", "133412.375000", "133412.375000", "133412.390000", "133452.328000", "133452.328000", "133452.328000", "133452.328000", "133452.343000", "133452.343000", "133452.343000", "133452.343000", "133452.343000", "133452.343000", "133452.343000", "133452.343000", "133452.359000", "133452.359000", "133452.359000", "133452.359000", "133452.359000", "133452.375000", "133452.375000", "133452.375000", "133532.328000", "133532.328000", "133532.343000", "133532.343000", "133532.343000", "133532.343000", "133532.343000", "133532.359000", "133532.359000", "133532.359000", "133532.359000", "133532.359000", "133532.359000", "133532.375000", "133532.375000", "133532.375000", "133532.375000", "133532.375000", "133532.390000", "133532.390000", "133606.625000", "133606.625000", "133606.625000", "133606.640000", "133606.640000", "133606.640000", "133606.640000", "133606.656000", "133606.656000", "133606.656000", "133606.656000", "133606.656000", "133606.656000", "133606.656000", "133606.656000", "133606.671000", "133606.671000", "133606.671000"],
      "InstanceNumber": [1, 2, 3, 4, 5, 6, 7, 8, 9, 10, 11, 12, 13, 14, 15, 16, 17, 18, 19, 20, 21, 22, 23, 24, 25, 26, 27, 28, 29, 30, 31, 32, 33, 34, 35, 36, 37, 38, 39, 40, 41, 42, 43, 44, 45, 46, 47, 48, 49, 50, 51, 52, 53, 54, 55, 56, 57, 58, 59, 60, 61, 62, 63, 64, 65, 66, 67, 68, 69, 70, 71, 72, 73, 74, 75, 76, 77, 78, 79, 80, 81, 82, 83, 84, 85, 86, 87, 88, 89, 90, 91, 92, 93, 94, 95, 96, 97, 98, 99, 100, 101, 102, 103, 104, 105, 106, 107, 108, 109, 110, 111, 112, 113, 114, 115, 116, 117, 118, 119, 120, 121, 122, 123, 124, 125, 126, 127, 128, 129, 130, 131, 132, 133, 134, 135, 136, 137, 138, 139, 140, 141, 142, 143, 144, 145, 146, 147, 148, 149, 150, 151, 152, 153, 154, 155, 156, 157, 158, 159, 160, 161, 162, 163, 164],
      "LargestImagePixelValue": [2277, 2205, 2159, 2196, 2156, 2191, 2156, 2159, 2151, 2117, 2122, 2127, 2131, 2151, 2148, 2118, 2122, 2123, 2113, 2150, 2119, 2115, 2118, 2137, 2140, 2154, 2183, 2188, 2172, 2170, 2138, 2158, 2161, 2200, 2176, 2176, 2140, 2130, 2162, 2121, 2159, 2146, 2179, 2142, 2149, 2153, 2148, 2192, 2202, 2154, 2142, 2182, 2158, 2151, 2184, 2133, 2186, 2195, 2198, 2220, 2213, 2185, 2208, 2155, 2195, 2192, 2175, 2205, 2194, 2219, 2187, 2166, 2213, 2185, 2198, 2203, 2197, 2194, 2159, 2167, 2189, 2177, 2149, 2171, 2200, 2228, 2216, 2186, 2198, 2209, 2197, 2159, 2147, 2159, 2159, 2159, 2138, 2154, 2130, 2123, 2129, 2134, 2160, 2141, 2171, 2165, 2110, 2114, 2138, 2150, 2134, 2158, 2164, 2122, 2151, 2151, 2155, 2154, 2142, 2179, 2150, 2170, 2132, 2169, 2169, 2164, 2184, 2172, 2141, 2160, 2156, 2143, 2130, 2145, 2154, 2144, 2181, 2133, 2154, 2133, 2153, 2138, 2171, 2157, 2154, 2138, 2149, 2139, 2155, 2145, 2113, 2174, 2160, 2177, 2182, 2153, 2205, 2147, 2171, 2155, 2192, 2151, 2208, 2201],
      "WindowCenter": [753.0, 751.0, 750.0, 750.0, 750.0, 749.0, 748.0, 748.0, 747.0, 747.0, 747.0, 748.0, 748.0, 749.0, 749.0, 748.0, 747.0, 747.0, 747.0, 747.0, 747.0, 748.0, 748.0, 749.0, 749.0, 749.0, 750.0, 750.0, 749.0, 749.0, 749.0, 750.0, 750.0, 750.0, 749.0, 749.0, 749.0, 749.0, 749.0, 749.0, 749.0, 749.0, 749.0, 749.0, 749.0, 749.0, 749.0, 750.0, 750.0, 749.0, 749.0, 749.0, 749.0, 749.0, 749.0, 749.0, 749.0, 749.0, 750.0, 750.0, 750.0, 750.0, 750.0, 750.0, 750.0, 750.0, 750.0, 750.0, 750.0, 750.0, 750.0, 750.0, 750.0, 750.0, 750.0, 750.0, 750.0, 750.0, 750.0, 750.0, 749.0, 749.0, 749.0, 750.0, 750.0, 751.0, 751.0, 751.0, 751.0, 751.0, 750.0, 750.0, 749.0, 750.0, 750.0, 750.0, 749.0, 750.0, 749.0, 749.0, 749.0, 749.0, 750.0, 750.0, 750.0, 749.0, 748.0, 749.0, 749.0, 749.0, 749.0, 749.0, 750.0, 749.0, 749.0, 749.0, 749.0, 750.0, 750.0, 750.0, 750.0, 750.0, 750.0, 750.0, 750.0, 750.0, 750.0, 750.0, 750.0, 750.0, 750.0, 750.0, 750.0, 750.0, 749.0, 749.0, 750.0, 749.0, 749.0, 750.0, 750.0, 750.0, 750.0, 750.0, 749.0, 750.0, 750.0, 750.0, 749.0, 749.0, 749.0, 751.0, 751.0, 751.0, 751.0, 750.0, 750.0, 749.0, 749.0, 750.0, 750.0, 751.0, 750.0, 751.0],
      "WindowWidth": [1674.0, 1667.0, 1666.0, 1665.0, 1663.0, 1662.0, 1659.0, 1657.0, 1655.0, 1655.0, 1656.0, 1657.0, 1659.0, 1661.0, 1660.0, 1659.0, 1656.0, 1655.0, 1655.0, 1657.0, 1657.0, 1658.0, 1659.0, 1661.0, 1662.0, 1662.0, 1665.0, 1663.0, 1661.0, 1662.0, 1662.0, 1664.0, 1665.0, 1664.0, 1662.0, 1661.0, 1660.0, 1661.0, 1663.0, 1660.0, 1660.0, 1661.0, 1660.0, 1660.0, 1662.0, 1661.0, 1662.0, 1666.0, 1664.0, 1662.0, 1661.0, 1661.0, 1661.0, 1661.0, 1662.0, 1661.0, 1662.0, 1662.0, 1665.0, 1665.0, 1666.0, 1664.0, 1664.0, 1663.0, 1664.0, 1666.0, 1665.0, 1665.0, 1664.0, 1664.0, 1664.0, 1664.0, 1665.0, 1664.0, 1663.0, 1664.0, 1664.0, 1663.0, 1663.0, 1664.0, 1662.0, 1662.0, 1663.0, 1664.0, 1666.0, 1667.0, 1667.0, 1668.0, 1668.0, 1667.0, 1665.0, 1663.0, 1662.0, 1663.0, 1664.0, 1663.0, 1662.0, 1664.0, 1661.0, 1660.0, 1661.0, 1661.0, 1663.0, 1663.0, 1663.0, 1661.0, 1659.0, 1660.0, 1661.0, 1662.0, 1662.0, 1662.0, 1662.0, 1661.0, 1662.0, 1661.0, 1661.0, 1663.0, 1663.0, 1663.0, 1663.0, 1664.0, 1664.0, 1665.0, 1665.0, 1665.0, 1665.0, 1665.0, 1663.0, 1663.0, 1665.0, 1665.0, 1664.0, 1663.0, 1662.0, 1662.0, 1664.0, 1660.0, 1661.0, 1663.0, 1664.0, 1664.0, 1664.0, 1663.0, 1662.0, 1662.0, 1663.0, 1663.0, 1662.0, 1662.0, 1662.0, 1666.0, 1666.0, 1667.0, 1667.0, 1663.0, 1663.0, 1662.0, 1661.0, 1663.0, 1665.0, 1665.0, 1665.0, 1666.0]
    },
    "slices": {}
  }
}