{
  "AcquisitionMatrixPE": 64,
  "AcquisitionNumber": 1,
  "AcquisitionTime": "13:11:31.092500",
  "BandwidthPerPixelPhaseEncode": 33.967,
  "BaseResolution": 64,
  "CoilCombinationMethod": "Sum of Squares",
  "CoilString": "C:HEA;HEP",
  "ConversionSoftware": "dcm2niix",
  "ConversionSoftwareVersion": "v1.0.20220720",
  "DerivedVendorReportedEchoSpacing": 0.000460005,
  "DeviceSerialNumber": "35193",
  "DwellTime": 3.1e-06,
  "EchoTime": 0.03,
  "EffectiveEchoSpacing": 0.000460005,
  "FlipAngle": 90,
  "HeudiconvVersion": "1.1.6",
  "ImageOrientationPatientDICOM": [0.999907, 0.00872654, -0.0104714, -0.00872606, 0.999962, 9.13823e-05],
  "ImageOrientationText": "Tra>Sag(-0.6)",
  "ImageType": [
    "ORIGINAL",
    "PRIMARY",
    "M",
    "ND",
    "MOSAIC"
],
  "ImagingFrequency": 123.254,
  "InPlanePhaseEncodingDirectionDICOM": "COL",
  "InstitutionAddress": "Xinjiekouwai Street No 19,Beijing,Haidian District,CN,100875",
  "InstitutionName": "BNU MRI Center",
  "InstitutionalDepartmentName": "Department",
  "MRAcquisitionType": "2D",
  "MagneticFieldStrength": 3,
  "Manufacturer": "Siemens",
  "ManufacturersModelName": "TrioTim",
  "MatrixCoilMode": "SENSE",
  "Modality": "MR",
  "NonlinearGradientCorrection": false,
  "PartialFourier": 1,
  "PatientPosition": "HFS",
  "PercentPhaseFOV": 100,
  "PercentSampling": 100,
  "PhaseEncodingDirection": "j-",
  "PhaseEncodingSteps": 64,
  "PhaseResolution": 1,
  "PixelBandwidth": 2520,
  "ProcedureStepDescription": "BNU_cst_2015^Guo.TaoMei",
  "ProtocolName": "ge_func_3x3x4_164",
  "PulseSequenceDetails": "%SiemensSeq%\\ep2d_bold",
  "ReceiveCoilName": "HeadMatrix",
  "ReconMatrixPE": 64,
  "RepetitionTime": 2,
  "SAR": 0.122761,
  "ScanOptions": "FS",
  "ScanningSequence": "EP",
  "SequenceName": "*epfid2d1_64",
  "SequenceVariant": "SK",
  "SeriesDescription": "ge_func_3x3x4_164",
  "SeriesNumber": 2,
  "ShimSetting": [-4510, -19416, -9846, 974, -236, -364, -55, -20],
  "SliceThickness": 4,
  "SliceTiming": [0, 1.0325, 0.06, 1.095, 0.12, 1.155, 0.1825, 1.215, 0.2425, 1.2775, 0.3025, 1.3375, 0.365, 1.3975, 0.425, 1.46, 0.485, 1.52, 0.5475, 1.58, 0.6075, 1.6425, 0.6675, 1.7025, 0.73, 1.7625, 0.79, 1.825, 0.85, 1.885, 0.9125, 1.945, 0.9725],
  "SoftwareVersions": "syngo MR B17",
  "SpacingBetweenSlices": 4.6,
  "StationName": "MRC35193",
  "TaskName": "CognitiveControl",
  "TotalReadoutTime": 0.0289803,
  "TxRefAmp": 328.235,
  "dcmmeta_affine": [
    [-3.1247096061706543, -0.027268948033452034, -0.04817020893096924, 104.3055648803711],
    [-0.027270441874861717, 3.1248810291290283, -7.765753040622769e-10, -84.52877807617188],
    [-0.0327230803668499, -0.0002855696657206863, 4.599747657775879, -63.09419250488281],
    [0.0, 0.0, 0.0, 1.0]
],
  "dcmmeta_reorient_transform": [
    [0.0, -1.0, 0.0, 63.0],
    [1.0, 0.0, 0.0, 0.0],
    [0.0, 0.0, 1.0, 0.0],
    [0.0, 0.0, 0.0, 1.0]
],
  "dcmmeta_shape": [64, 64, 33, 164],
  "dcmmeta_slice_dim": 2,
  "dcmmeta_version": 0.6,
  "global": {
    "const": {
      "AcquisitionMatrix": [64, 0, 0, 64],
      "AngioFlag": "N",
      "BitsAllocated": 16,
      "BitsStored": 12,
      "Columns": 384,
      "EchoNumbers": 1,
      "EchoTime": 30.0,
      "EchoTrainLength": 1,
      "FlipAngle": 90.0,
      "HighBit": 11,
      "ImageOrientationPatient": [0.99990709446167, 0.00872654164885, -0.010471385585, -0.0087260631688, 0.9999619230105, 9.138229318e-05],
      "ImagePositionPatient": [-598.17813719881, -616.682957946, -57.922182656238],
      "ImageType": [
        "ORIGINAL",
        "PRIMARY",
        "M",
        "ND",
        "MOSAIC"
],
      "ImagedNucleus": "1H",
      "ImagingFrequency": 123.253727,
      "InPlanePhaseEncodingDirection": "COL",
      "MRAcquisitionType": "2D",
      "MagneticFieldStrength": 3.0,
      "Manufacturer": "SIEMENS",
      "ManufacturerModelName": "TrioTim",
      "Modality": "MR",
      "NumberOfAverages": 1.0,
      "NumberOfPhaseEncodingSteps": 64,
      "PercentPhaseFieldOfView": 100.0,
      "PercentSampling": 100.0,
      "PerformedProcedureStepStartTime": "130916.140000",
      "PhotometricInterpretation": "MONOCHROME2",
      "PixelBandwidth": 2520.0,
      "PixelRepresentation": 0,
      "PixelSpacing": [3.125, 3.125],
      "ProtocolName": "ge_func_3x3x4_164",
      "RepetitionTime": 2000.0,
      "Rows": 384,
      "SAR": 0.12276131820228,
      "SamplesPerPixel": 1,
      "ScanOptions": "FS",
      "ScanningSequence": "EP",
      "SequenceName": "*epfid2d1_64",
      "SequenceVariant": "SK",
      "SeriesDescription": "ge_func_3x3x4_164",
      "SeriesNumber": 2,
      "SeriesTime": "131212.328000",
      "SliceLocation": -64.182999286435,
      "SliceThickness": 4.0,
      "SmallestImagePixelValue": 0,
      "SoftwareVersions": "syngo MR B17",
      "SpacingBetweenSlices": 4.6000001170886,
      "SpecificCharacterSet": "ISO_IR 100",
      "StudyID": "1",
      "StudyTime": "130916.062000",
      "TransmitCoilName": "Body",
      "VariableFlipAngleFlag": "N",
      "WindowCenterWidthExplanation": "Algo1",
      "dBdt": 0.0},
    "slices": {}
  },
  "time": {
    "samples": {
      "AcquisitionNumber": [1, 2, 3, 4, 5, 6, 7, 8, 9, 10, 11, 12, 13, 14, 15, 16, 17, 18, 19, 20, 21, 22, 23, 24, 25, 26, 27, 28, 29, 30, 31, 32, 33, 34, 35, 36, 37, 38, 39, 40, 41, 42, 43, 44, 45, 46, 47, 48, 49, 50, 51, 52, 53, 54, 55, 56, 57, 58, 59, 60, 61, 62, 63, 64, 65, 66, 67, 68, 69, 70, 71, 72, 73, 74, 75, 76, 77, 78, 79, 80, 81, 82, 83, 84, 85, 86, 87, 88, 89, 90, 91, 92, 93, 94, 95, 96, 97, 98, 99, 100, 101, 102, 103, 104, 105, 106, 107, 108, 109, 110, 111, 112, 113, 114, 115, 116, 117, 118, 119, 120, 121, 122, 123, 124, 125, 126, 127, 128, 129, 130, 131, 132, 133, 134, 135, 136, 137, 138, 139, 140, 141, 142, 143, 144, 145, 146, 147, 148, 149, 150, 151, 152, 153, 154, 155, 156, 157, 158, 159, 160, 161, 162, 163, 164],
      "AcquisitionTime": ["131131.092500", "131133.100000", "131135.107500", "131137.115000", "131139.125000", "131141.132500", "131143.140000", "131145.147500", "131147.155000", "131149.165000", "131151.172500", "131153.180000", "131155.187500", "131157.195000", "131159.205000", "131201.212500", "131203.220000", "131205.227500", "131207.237500", "131209.245000", "131211.252500", "131213.260000", "131215.267500", "131217.277500", "131219.285000", "131221.292500", "131223.300000", "131225.307500", "131227.317500", "131229.325000", "131231.332500", "131233.340000", "131235.350000", "131237.357500", "131239.365000", "131241.372500", "131243.380000", "131245.390000", "131247.397500", "131249.405000", "131251.412500", "131253.420000", "131255.430000", "131257.437500", "131259.445000", "131301.452500", "131303.460000", "131305.470000", "131307.477500", "131309.485000", "131311.492500", "131313.502500", "131315.510000", "131317.517500", "131319.525000", "131321.532500", "131323.542500", "131325.550000", "131327.557500", "131329.565000", "131331.572500", "131333.582500", "131335.590000", "131337.597500", "131339.605000", "131341.615000", "131343.622500", "131345.630000", "131347.637500", "131349.645000", "131351.655000", "131353.662500", "131355.670000", "131357.677500", "131359.685000", "131401.695000", "131403.702500", "131405.710000", "131407.717500", "131409.727500", "131411.735000", "131413.742500", "131415.750000", "131417.757500", "131419.767500", "131421.775000", "131423.782500", "131425.790000", "131427.797500", "131429.807500", "131431.815000", "131433.822500", "131435.830000", "131437.837500", "131439.847500", "131441.855000", "131443.862500", "131445.870000", "131447.880000", "131449.887500", "131451.895000", "131453.902500", "131455.910000", "131457.920000", "131459.927500", "131501.935000", "131503.942500", "131505.950000", "131507.960000", "131509.967500", "131511.975000", "131513.982500", "131515.992500", "131518.000000", "131520.007500", "131522.015000", "131524.022500", "131526.032500", "131528.040000", "131530.047500", "131532.055000", "131534.062500", "131536.072500", "131538.080000", "131540.087500", "131542.095000", "131544.105000", "131546.112500", "131548.120000", "131550.127500", "131552.135000", "131554.145000", "131556.152500", "131558.160000", "131600.167500", "131602.175000", "131604.185000", "131606.192500", "131608.200000", "131610.207500", "131612.217500", "131614.225000", "131616.232500", "131618.240000", "131620.247500", "131622.257500", "131624.265000", "131626.272500", "131628.280000", "131630.287500", "131632.297500", "131634.305000", "131636.312500", "131638.320000", "131640.327500", "131642.337500", "131644.345000", "131646.352500", "131648.360000", "131650.370000", "131652.377500", "131654.385000", "131656.392500", "131658.400000"],
      "ContentTime": ["131212.328000", "131212.343000", "131212.343000", "131212.343000", "131212.343000", "131212.359000", "131212.359000", "131212.359000", "131212.359000", "131212.359000", "131212.359000", "131212.375000", "131212.375000", "131212.375000", "131212.375000", "131212.375000", "131212.375000", "131212.375000", "131212.375000", "131212.375000", "131252.328000", "131252.328000", "131252.328000", "131252.328000", "131252.343000", "131252.343000", "131252.343000", "131252.343000", "131252.343000", "131252.343000", "131252.343000", "131252.343000", "131252.343000", "131252.359000", "131252.359000", "131252.359000", "131252.359000", "131252.359000", "131252.359000", "131252.359000", "131332.328000", "131332.328000", "131332.328000", "131332.328000", "131332.328000", "131332.343000", "131332.343000", "131332.343000", "131332.343000", "131332.343000", "131332.343000", "131332.343000", "131332.343000", "131332.359000", "131332.359000", "131332.359000", "131332.359000", "131332.359000", "131332.359000", "131332.359000", "131412.328000", "131412.328000", "131412.328000", "131412.328000", "131412.343000", "131412.343000", "131412.343000", "131412.359000", "131412.359000", "131412.359000", "131412.359000", "131412.359000", "131412.359000", "131412.359000", "131412.359000", "131412.359000", "131412.375000", "131412.375000", "131412.375000", "131412.375000", "131452.328000", "131452.343000", "131452.343000", "131452.343000", "131452.343000", "131452.343000", "131452.359000", "131452.359000", "131452.375000", "131452.375000", "131452.375000", "131452.375000", "131452.390000", "131452.390000", "131452.390000", "131452.390000", "131452.390000", "131452.390000", "131452.406000", "131452.406000", "131532.328000", "131532.328000", "131532.328000", "131532.328000", "131532.343000", "131532.343000", "131532.343000", "131532.343000", "131532.359000", "131532.359000", "131532.359000", "131532.359000", "131532.359000", "131532.359000", "131532.359000", "131532.359000", "131532.359000", "131532.375000", "131532.375000", "131532.375000", "131612.328000", "131612.328000", "131612.328000", "131612.328000", "131612.328000", "131612.343000", "131612.343000", "131612.343000", "131612.343000", "131612.343000", "131612.343000", "131612.343000", "131612.343000", "131612.359000", "131612.359000", "131612.359000", "131612.359000", "131612.359000", "131612.359000", "131612.359000", "131652.328000", "131652.328000", "131652.328000", "131652.328000", "131652.328000", "131652.343000", "131652.343000", "131652.343000", "131652.343000", "131652.343000", "131652.343000", "131652.343000", "131652.343000", "131652.359000", "131652.359000", "131652.359000", "131652.359000", "131652.359000", "131652.359000", "131652.359000", "131659.531000", "131659.546000", "131659.546000", "131659.546000"],
      "InstanceCreationTime": ["131212.328000", "131212.343000", "131212.343000", "131212.343000", "131212.343000", "131212.359000", "131212.359000", "131212.359000", "131212.359000", "131212.359000", "131212.359000", "131212.375000", "131212.375000", "131212.375000", "131212.375000", "131212.375000", "131212.375000", "131212.375000", "131212.375000", "131212.375000", "131252.328000", "131252.328000", "131252.328000", "131252.328000", "131252.343000", "131252.343000", "131252.343000", "131252.343000", "131252.343000", "131252.343000", "131252.343000", "131252.343000", "131252.343000", "131252.359000", "131252.359000", "131252.359000", "131252.359000", "131252.359000", "131252.359000", "131252.359000", "131332.328000", "131332.328000", "131332.328000", "131332.328000", "131332.328000", "131332.343000", "131332.343000", "131332.343000", "131332.343000", "131332.343000", "131332.343000", "131332.343000", "131332.343000", "131332.359000", "131332.359000", "131332.359000", "131332.359000", "131332.359000", "131332.359000", "131332.359000", "131412.328000", "131412.328000", "131412.328000", "131412.328000", "131412.343000", "131412.343000", "131412.343000", "131412.359000", "131412.359000", "131412.359000", "131412.359000", "131412.359000", "131412.359000", "131412.359000", "131412.359000", "131412.359000", "131412.375000", "131412.375000", "131412.375000", "131412.375000", "131452.328000", "131452.343000", "131452.343000", "131452.343000", "131452.343000", "131452.343000", "131452.359000", "131452.359000", "131452.375000", "131452.375000", "131452.375000", "131452.375000", "131452.390000", "131452.390000", "131452.390000", "131452.390000", "131452.390000", "131452.390000", "131452.406000", "131452.406000", "131532.328000", "131532.328000", "131532.328000", "131532.328000", "131532.343000", "131532.343000", "131532.343000", "131532.343000", "131532.359000", "131532.359000", "131532.359000", "131532.359000", "131532.359000", "131532.359000", "131532.359000", "131532.359000", "131532.359000", "131532.375000", "131532.375000", "131532.375000", "131612.328000", "131612.328000", "131612.328000", "131612.328000", "131612.328000", "131612.343000", "131612.343000", "131612.343000", "131612.343000", "131612.343000", "131612.343000", "131612.343000", "131612.343000", "131612.359000", "131612.359000", "131612.359000", "131612.359000", "131612.359000", "131612.359000", "131612.359000", "131652.328000", "131652.328000", "131652.328000", "131652.328000", "131652.328000", "131652.343000", "131652.343000", "131652.343000", "131652.343000", "131652.343000", "131652.343000", "131652.343000", "131652.343000", "131652.359000", "131652.359000", "131652.359000", "131652.359000", "131652.359000", "131652.359000", "131652.359000", "131659.531000", "131659.546000", "131659.546000", "131659.546000"],
      "InstanceNumber": [1, 2, 3, 4, 5, 6, 7, 8, 9, 10, 11, 12, 13, 14, 15, 16, 17, 18, 19, 20, 21, 22, 23, 24, 25, 26, 27, 28, 29, 30, 31, 32, 33, 34, 35, 36, 37, 38, 39, 40, 41, 42, 43, 44, 45, 46, 47, 48, 49, 50, 51, 52, 53, 54, 55, 56, 57, 58, 59, 60, 61, 62, 63, 64, 65, 66, 67, 68, 69, 70, 71, 72, 73, 74, 75, 76, 77, 78, 79, 80, 81, 82, 83, 84, 85, 86, 87, 88, 89, 90, 91, 92, 93, 94, 95, 96, 97, 98, 99, 100, 101, 102, 103, 104, 105, 106, 107, 108, 109, 110, 111, 112, 113, 114, 115, 116, 117, 118, 119, 120, 121, 122, 123, 124, 125, 126, 127, 128, 129, 130, 131, 132, 133, 134, 135, 136, 137, 138, 139, 140, 141, 142, 143, 144, 145, 146, 147, 148, 149, 150, 151, 152, 153, 154, 155, 156, 157, 158, 159, 160, 161, 162, 163, 164],
      "LargestImagePixelValue": [2271, 2177, 2176, 2166, 2185, 2157, 2176, 2192, 2174, 2179, 2169, 2183, 2154, 2172, 2165, 2161, 2192, 2164, 2209, 2171, 2158, 2160, 2168, 2162, 2170, 2192, 2159, 2174, 2196, 2167, 2168, 2196, 2174, 2172, 2174, 2142, 2165, 2178, 2166, 2174, 2167, 2141, 2163, 2146, 2162, 2157, 2143, 2161, 2163, 2145, 2136, 2158, 2140, 2149, 2168, 2143, 2158, 2151, 2153, 2156, 2148, 2171, 2156, 2149, 2159, 2166, 2164, 2156, 2153, 2168, 2178, 2145, 2175, 2152, 2160, 2144, 2150, 2149, 2141, 2162, 2169, 2180, 2169, 2152, 2162, 2156, 2159, 2158, 2139, 2169, 2157, 2163, 2179, 2153, 2178, 2172, 2153, 2164, 2200, 2157, 2187, 2149, 2160, 2163, 2161, 2165, 2192, 2159, 2190, 2159, 2170, 2175, 2169, 2182, 2165, 2194, 2220, 2160, 2160, 2200, 2139, 2150, 2151, 2162, 2165, 2152, 2178, 2153, 2188, 2195, 2200, 2188, 2178, 2225, 2192, 2204, 2177, 2187, 2171, 2153, 2155, 2155, 2158, 2157, 2157, 2156, 2142, 2167, 2143, 2178, 2166, 2190, 2201, 2161, 2219, 2183, 2160, 2153, 2165, 2172, 2181, 2167, 2200, 2158],
      "WindowCenter": [750.0, 748.0, 746.0, 746.0, 747.0, 747.0, 747.0, 746.0, 746.0, 746.0, 746.0, 746.0, 746.0, 746.0, 746.0, 746.0, 746.0, 746.0, 747.0, 746.0, 746.0, 746.0, 746.0, 746.0, 747.0, 747.0, 747.0, 747.0, 747.0, 746.0, 747.0, 747.0, 747.0, 747.0, 747.0, 747.0, 747.0, 748.0, 747.0, 747.0, 747.0, 746.0, 747.0, 746.0, 746.0, 745.0, 745.0, 746.0, 746.0, 746.0, 746.0, 746.0, 746.0, 746.0, 746.0, 746.0, 746.0, 746.0, 746.0, 746.0, 746.0, 747.0, 747.0, 747.0, 747.0, 746.0, 747.0, 747.0, 747.0, 747.0, 747.0, 746.0, 746.0, 747.0, 747.0, 746.0, 746.0, 746.0, 747.0, 747.0, 747.0, 747.0, 747.0, 747.0, 747.0, 747.0, 746.0, 747.0, 747.0, 747.0, 746.0, 747.0, 747.0, 747.0, 747.0, 747.0, 747.0, 748.0, 747.0, 747.0, 747.0, 746.0, 747.0, 747.0, 747.0, 748.0, 748.0, 748.0, 747.0, 747.0, 747.0, 747.0, 747.0, 748.0, 748.0, 748.0, 748.0, 747.0, 747.0, 747.0, 747.0, 747.0, 747.0, 747.0, 747.0, 747.0, 748.0, 748.0, 749.0, 749.0, 749.0, 748.0, 748.0, 748.0, 748.0, 748.0, 747.0, 747.0, 747.0, 746.0, 747.0, 747.0, 746.0, 747.0, 746.0, 746.0, 747.0, 747.0, 748.0, 748.0, 748.0, 748.0, 748.0, 748.0, 748.0, 747.0, 748.0, 748.0, 748.0, 748.0, 748.0, 747.0, 747.0, 747.0],
      "WindowWidth": [1667.0, 1659.0, 1655.0, 1655.0, 1656.0, 1656.0, 1656.0, 1655.0, 1653.0, 1654.0, 1655.0, 1654.0, 1654.0, 1654.0, 1653.0, 1654.0, 1655.0, 1655.0, 1656.0, 1654.0, 1653.0, 1654.0, 1654.0, 1655.0, 1656.0, 1655.0, 1656.0, 1657.0, 1657.0, 1655.0, 1657.0, 1658.0, 1659.0, 1657.0, 1657.0, 1656.0, 1657.0, 1659.0, 1656.0, 1656.0, 1656.0, 1655.0, 1656.0, 1654.0, 1653.0, 1651.0, 1651.0, 1653.0, 1653.0, 1654.0, 1655.0, 1655.0, 1654.0, 1654.0, 1654.0, 1654.0, 1653.0, 1653.0, 1655.0, 1655.0, 1655.0, 1657.0, 1656.0, 1656.0, 1656.0, 1655.0, 1656.0, 1656.0, 1656.0, 1656.0, 1657.0, 1655.0, 1655.0, 1658.0, 1657.0, 1654.0, 1654.0, 1654.0, 1655.0, 1656.0, 1656.0, 1658.0, 1656.0, 1656.0, 1656.0, 1656.0, 1655.0, 1655.0, 1656.0, 1655.0, 1654.0, 1656.0, 1657.0, 1657.0, 1657.0, 1658.0, 1658.0, 1659.0, 1658.0, 1658.0, 1657.0, 1655.0, 1656.0, 1658.0, 1658.0, 1659.0, 1659.0, 1659.0, 1658.0, 1658.0, 1658.0, 1659.0, 1658.0, 1660.0, 1661.0, 1662.0, 1660.0, 1656.0, 1657.0, 1656.0, 1656.0, 1657.0, 1658.0, 1657.0, 1656.0, 1657.0, 1659.0, 1661.0, 1664.0, 1662.0, 1662.0, 1660.0, 1659.0, 1661.0, 1659.0, 1659.0, 1657.0, 1657.0, 1656.0, 1655.0, 1655.0, 1657.0, 1655.0, 1655.0, 1654.0, 1655.0, 1655.0, 1658.0, 1659.0, 1659.0, 1659.0, 1660.0, 1659.0, 1659.0, 1659.0, 1657.0, 1658.0, 1659.0, 1659.0, 1660.0, 1658.0, 1657.0, 1657.0, 1656.0]
    },
    "slices": {}
  }
}