{
  "AcquisitionMatrixPE": 64,
  "AcquisitionNumber": 1,
  "AcquisitionTime": "13:17:55.585000",
  "BandwidthPerPixelPhaseEncode": 33.967,
  "BaseResolution": 64,
  "CoilCombinationMethod": "Sum of Squares",
  "CoilString": "C:HEA;HEP",
  "ConversionSoftware": "dcm2niix",
  "ConversionSoftwareVersion": "v1.0.20220720",
  "DerivedVendorReportedEchoSpacing": 0.000460005,
  "DeviceSerialNumber": "35193",
  "DwellTime": 3.1e-06,
  "EchoTime": 0.03,
  "EffectiveEchoSpacing": 0.000460005,
  "FlipAngle": 90,
  "HeudiconvVersion": "1.1.6",
  "ImageOrientationPatientDICOM": [0.999907, 0.00872654, -0.0104714, -0.00872606, 0.999962, 9.13823e-05],
  "ImageOrientationText": "Tra>Sag(-0.6)",
  "ImageType": [
    "ORIGINAL",
    "PRIMARY",
    "M",
    "ND",
    "MOSAIC"
],
  "ImagingFrequency": 123.254,
  "InPlanePhaseEncodingDirectionDICOM": "COL",
  "InstitutionAddress": "Xinjiekouwai Street No 19,Beijing,Haidian District,CN,100875",
  "InstitutionName": "BNU MRI Center",
  "InstitutionalDepartmentName": "Department",
  "MRAcquisitionType": "2D",
  "MagneticFieldStrength": 3,
  "Manufacturer": "Siemens",
  "ManufacturersModelName": "TrioTim",
  "MatrixCoilMode": "SENSE",
  "Modality": "MR",
  "NonlinearGradientCorrection": false,
  "PartialFourier": 1,
  "PatientPosition": "HFS",
  "PercentPhaseFOV": 100,
  "PercentSampling": 100,
  "PhaseEncodingDirection": "j-",
  "PhaseEncodingSteps": 64,
  "PhaseResolution": 1,
  "PixelBandwidth": 2520,
  "ProcedureStepDescription": "BNU_cst_2015^Guo.TaoMei",
  "ProtocolName": "ge_func_3x3x4_164",
  "PulseSequenceDetails": "%SiemensSeq%\\ep2d_bold",
  "ReceiveCoilName": "HeadMatrix",
  "ReconMatrixPE": 64,
  "RepetitionTime": 2,
  "SAR": 0.122761,
  "ScanOptions": "FS",
  "ScanningSequence": "EP",
  "SequenceName": "*epfid2d1_64",
  "SequenceVariant": "SK",
  "SeriesDescription": "ge_func_3x3x4_164",
  "SeriesNumber": 3,
  "ShimSetting": [-4510, -19416, -9846, 974, -236, -364, -55, -20],
  "SliceThickness": 4,
  "SliceTiming": [0, 1.035, 0.06, 1.095, 0.1225, 1.155, 0.1825, 1.2175, 0.2425, 1.2775, 0.305, 1.3375, 0.365, 1.4, 0.425, 1.46, 0.4875, 1.52, 0.5475, 1.5825, 0.6075, 1.6425, 0.67, 1.7025, 0.73, 1.765, 0.79, 1.825, 0.8525, 1.885, 0.9125, 1.9475, 0.9725],
  "SoftwareVersions": "syngo MR B17",
  "SpacingBetweenSlices": 4.6,
  "StationName": "MRC35193",
  "TaskName": "CognitiveControl",
  "TotalReadoutTime": 0.0289803,
  "TxRefAmp": 328.235,
  "dcmmeta_affine": [
    [-3.1247096061706543, -0.027268948033452034, -0.04817020893096924, 104.3055648803711],
    [-0.027270441874861717, 3.1248810291290283, -7.765753040622769e-10, -84.52877807617188],
    [-0.0327230803668499, -0.0002855696657206863, 4.599747657775879, -63.09419250488281],
    [0.0, 0.0, 0.0, 1.0]
],
  "dcmmeta_reorient_transform": [
    [0.0, -1.0, 0.0, 63.0],
    [1.0, 0.0, 0.0, 0.0],
    [0.0, 0.0, 1.0, 0.0],
    [0.0, 0.0, 0.0, 1.0]
],
  "dcmmeta_shape": [64, 64, 33, 164],
  "dcmmeta_slice_dim": 2,
  "dcmmeta_version": 0.6,
  "global": {
    "const": {
      "AcquisitionMatrix": [64, 0, 0, 64],
      "AngioFlag": "N",
      "BitsAllocated": 16,
      "BitsStored": 12,
      "Columns": 384,
      "EchoNumbers": 1,
      "EchoTime": 30.0,
      "EchoTrainLength": 1,
      "FlipAngle": 90.0,
      "HighBit": 11,
      "ImageOrientationPatient": [0.99990709446167, 0.00872654164885, -0.010471385585, -0.0087260631688, 0.9999619230105, 9.138229318e-05],
      "ImagePositionPatient": [-598.17813719881, -616.682957946, -57.922182656238],
      "ImageType": [
        "ORIGINAL",
        "PRIMARY",
        "M",
        "ND",
        "MOSAIC"
],
      "ImagedNucleus": "1H",
      "ImagingFrequency": 123.253726,
      "InPlanePhaseEncodingDirection": "COL",
      "MRAcquisitionType": "2D",
      "MagneticFieldStrength": 3.0,
      "Manufacturer": "SIEMENS",
      "ManufacturerModelName": "TrioTim",
      "Modality": "MR",
      "NumberOfAverages": 1.0,
      "NumberOfPhaseEncodingSteps": 64,
      "PercentPhaseFieldOfView": 100.0,
      "PercentSampling": 100.0,
      "PerformedProcedureStepStartTime": "130916.140000",
      "PhotometricInterpretation": "MONOCHROME2",
      "PixelBandwidth": 2520.0,
      "PixelRepresentation": 0,
      "PixelSpacing": [3.125, 3.125],
      "ProtocolName": "ge_func_3x3x4_164",
      "RepetitionTime": 2000.0,
      "Rows": 384,
      "SAR": 0.12276131820228,
      "SamplesPerPixel": 1,
      "ScanOptions": "FS",
      "ScanningSequence": "EP",
      "SequenceName": "*epfid2d1_64",
      "SequenceVariant": "SK",
      "SeriesDescription": "ge_func_3x3x4_164",
      "SeriesNumber": 3,
      "SeriesTime": "131836.765000",
      "SliceLocation": -64.182999286435,
      "SliceThickness": 4.0,
      "SmallestImagePixelValue": 0,
      "SoftwareVersions": "syngo MR B17",
      "SpacingBetweenSlices": 4.6000001170886,
      "SpecificCharacterSet": "ISO_IR 100",
      "StudyID": "1",
      "StudyTime": "130916.062000",
      "TransmitCoilName": "Body",
      "VariableFlipAngleFlag": "N",
      "WindowCenterWidthExplanation": "Algo1",
      "dBdt": 0.0},
    "slices": {}
  },
  "time": {
    "samples": {
      "AcquisitionNumber": [1, 2, 3, 4, 5, 6, 7, 8, 9, 10, 11, 12, 13, 14, 15, 16, 17, 18, 19, 20, 21, 22, 23, 24, 25, 26, 27, 28, 29, 30, 31, 32, 33, 34, 35, 36, 37, 38, 39, 40, 41, 42, 43, 44, 45, 46, 47, 48, 49, 50, 51, 52, 53, 54, 55, 56, 57, 58, 59, 60, 61, 62, 63, 64, 65, 66, 67, 68, 69, 70, 71, 72, 73, 74, 75, 76, 77, 78, 79, 80, 81, 82, 83, 84, 85, 86, 87, 88, 89, 90, 91, 92, 93, 94, 95, 96, 97, 98, 99, 100, 101, 102, 103, 104, 105, 106, 107, 108, 109, 110, 111, 112, 113, 114, 115, 116, 117, 118, 119, 120, 121, 122, 123, 124, 125, 126, 127, 128, 129, 130, 131, 132, 133, 134, 135, 136, 137, 138, 139, 140, 141, 142, 143, 144, 145, 146, 147, 148, 149, 150, 151, 152, 153, 154, 155, 156, 157, 158, 159, 160, 161, 162, 163, 164],
      "AcquisitionTime": ["131755.585000", "131757.592500", "131759.602500", "131801.610000", "131803.617500", "131805.625000", "131807.632500", "131809.642500", "131811.650000", "131813.657500", "131815.665000", "131817.672500", "131819.682500", "131821.690000", "131823.697500", "131825.705000", "131827.712500", "131829.722500", "131831.730000", "131833.737500", "131835.745000", "131837.755000", "131839.762500", "131841.770000", "131843.777500", "131845.785000", "131847.795000", "131849.802500", "131851.810000", "131853.817500", "131855.825000", "131857.835000", "131859.842500", "131901.850000", "131903.857500", "131905.867500", "131907.875000", "131909.882500", "131911.890000", "131913.897500", "131915.907500", "131917.915000", "131919.922500", "131921.930000", "131923.937500", "131925.947500", "131927.955000", "131929.962500", "131931.970000", "131933.980000", "131935.987500", "131937.995000", "131940.002500", "131942.010000", "131944.020000", "131946.027500", "131948.035000", "131950.042500", "131952.050000", "131954.060000", "131956.067500", "131958.075000", "132000.082500", "132002.090000", "132004.100000", "132006.107500", "132008.115000", "132010.122500", "132012.132500", "132014.140000", "132016.147500", "132018.155000", "132020.162500", "132022.172500", "132024.180000", "132026.187500", "132028.195000", "132030.202500", "132032.212500", "132034.220000", "132036.227500", "132038.235000", "132040.245000", "132042.252500", "132044.260000", "132046.267500", "132048.275000", "132050.285000", "132052.292500", "132054.300000", "132056.307500", "132058.315000", "132100.325000", "132102.332500", "132104.340000", "132106.347500", "132108.357500", "132110.365000", "132112.372500", "132114.380000", "132116.387500", "132118.397500", "132120.405000", "132122.412500", "132124.420000", "132126.427500", "132128.437500", "132130.445000", "132132.452500", "132134.460000", "132136.470000", "132138.477500", "132140.485000", "132142.492500", "132144.500000", "132146.510000", "132148.517500", "132150.525000", "132152.532500", "132154.540000", "132156.550000", "132158.557500", "132200.565000", "132202.572500", "132204.580000", "132206.590000", "132208.597500", "132210.605000", "132212.612500", "132214.622500", "132216.630000", "132218.637500", "132220.645000", "132222.652500", "132224.662500", "132226.670000", "132228.677500", "132230.685000", "132232.692500", "132234.702500", "132236.710000", "132238.717500", "132240.725000", "132242.735000", "132244.742500", "132246.750000", "132248.757500", "132250.765000", "132252.775000", "132254.782500", "132256.790000", "132258.797500", "132300.805000", "132302.815000", "132304.822500", "132306.830000", "132308.837500", "132310.847500", "132312.855000", "132314.862500", "132316.870000", "132318.877500", "132320.887500", "132322.895000"],
      "ContentTime": ["131836.765000", "131836.781000", "131836.781000", "131836.781000", "131836.781000", "131836.796000", "131836.796000", "131836.796000", "131836.796000", "131836.796000", "131836.796000", "131836.796000", "131836.796000", "131836.812000", "131836.812000", "131836.812000", "131836.812000", "131836.812000", "131836.812000", "131836.812000", "131916.765000", "131916.765000", "131916.765000", "131916.765000", "131916.781000", "131916.781000", "131916.781000", "131916.781000", "131916.781000", "131916.781000", "131916.781000", "131916.781000", "131916.781000", "131916.796000", "131916.796000", "131916.796000", "131916.796000", "131916.796000", "131916.796000", "131916.796000", "131956.765000", "131956.765000", "131956.765000", "131956.765000", "131956.765000", "131956.781000", "131956.781000", "131956.781000", "131956.781000", "131956.781000", "131956.781000", "131956.781000", "131956.781000", "131956.796000", "131956.796000", "131956.796000", "131956.812000", "131956.812000", "131956.812000", "131956.812000", "132036.765000", "132036.765000", "132036.765000", "132036.765000", "132036.781000", "132036.781000", "132036.781000", "132036.781000", "132036.796000", "132036.796000", "132036.796000", "132036.796000", "132036.796000", "132036.812000", "132036.812000", "132036.812000", "132036.812000", "132036.828000", "132036.828000", "132036.843000", "132116.765000", "132116.765000", "132116.781000", "132116.781000", "132116.781000", "132116.796000", "132116.796000", "132116.796000", "132116.796000", "132116.796000", "132116.796000", "132116.812000", "132116.812000", "132116.812000", "132116.812000", "132116.812000", "132116.812000", "132116.812000", "132116.812000", "132116.828000", "132156.765000", "132156.765000", "132156.765000", "132156.765000", "132156.765000", "132156.781000", "132156.781000", "132156.781000", "132156.781000", "132156.781000", "132156.796000", "132156.796000", "132156.796000", "132156.796000", "132156.796000", "132156.796000", "132156.796000", "132156.796000", "132156.812000", "132156.812000", "132236.765000", "132236.765000", "132236.765000", "132236.765000", "132236.781000", "132236.781000", "132236.781000", "132236.796000", "132236.796000", "132236.796000", "132236.796000", "132236.796000", "132236.812000", "132236.812000", "132236.812000", "132236.812000", "132236.812000", "132236.812000", "132236.812000", "132236.812000", "132316.765000", "132316.765000", "132316.765000", "132316.781000", "132316.781000", "132316.781000", "132316.781000", "132316.781000", "132316.796000", "132316.796000", "132316.796000", "132316.796000", "132316.796000", "132316.796000", "132316.796000", "132316.796000", "132316.812000", "132316.812000", "132316.812000", "132316.812000", "132323.656000", "132323.656000", "132323.656000", "132323.656000"],
      "InstanceCreationTime": ["131836.765000", "131836.781000", "131836.781000", "131836.781000", "131836.781000", "131836.796000", "131836.796000", "131836.796000", "131836.796000", "131836.796000", "131836.796000", "131836.796000", "131836.796000", "131836.812000", "131836.812000", "131836.812000", "131836.812000", "131836.812000", "131836.812000", "131836.812000", "131916.765000", "131916.765000", "131916.765000", "131916.765000", "131916.781000", "131916.781000", "131916.781000", "131916.781000", "131916.781000", "131916.781000", "131916.781000", "131916.781000", "131916.781000", "131916.796000", "131916.796000", "131916.796000", "131916.796000", "131916.796000", "131916.796000", "131916.796000", "131956.765000", "131956.765000", "131956.765000", "131956.765000", "131956.765000", "131956.781000", "131956.781000", "131956.781000", "131956.781000", "131956.781000", "131956.781000", "131956.781000", "131956.781000", "131956.796000", "131956.796000", "131956.796000", "131956.812000", "131956.812000", "131956.812000", "131956.812000", "132036.765000", "132036.765000", "132036.765000", "132036.765000", "132036.781000", "132036.781000", "132036.781000", "132036.781000", "132036.796000", "132036.796000", "132036.796000", "132036.796000", "132036.796000", "132036.812000", "132036.812000", "132036.812000", "132036.812000", "132036.828000", "132036.828000", "132036.843000", "132116.765000", "132116.765000", "132116.781000", "132116.781000", "132116.781000", "132116.796000", "132116.796000", "132116.796000", "132116.796000", "132116.796000", "132116.796000", "132116.812000", "132116.812000", "132116.812000", "132116.812000", "132116.812000", "132116.812000", "132116.812000", "132116.812000", "132116.828000", "132156.765000", "132156.765000", "132156.765000", "132156.765000", "132156.765000", "132156.781000", "132156.781000", "132156.781000", "132156.781000", "132156.781000", "132156.796000", "132156.796000", "132156.796000", "132156.796000", "132156.796000", "132156.796000", "132156.796000", "132156.796000", "132156.812000", "132156.812000", "132236.765000", "132236.765000", "132236.765000", "132236.765000", "132236.781000", "132236.781000", "132236.781000", "132236.796000", "132236.796000", "132236.796000", "132236.796000", "132236.796000", "132236.812000", "132236.812000", "132236.812000", "132236.812000", "132236.812000", "132236.812000", "132236.812000", "132236.812000", "132316.765000", "132316.765000", "132316.765000", "132316.781000", "132316.781000", "132316.781000", "132316.781000", "132316.781000", "132316.796000", "132316.796000", "132316.796000", "132316.796000", "132316.796000", "132316.796000", "132316.796000", "132316.796000", "132316.812000", "132316.812000", "132316.812000", "132316.812000", "132323.656000", "132323.656000", "132323.656000", "132323.656000"],
      "InstanceNumber": [1, 2, 3, 4, 5, 6, 7, 8, 9, 10, 11, 12, 13, 14, 15, 16, 17, 18, 19, 20, 21, 22, 23, 24, 25, 26, 27, 28, 29, 30, 31, 32, 33, 34, 35, 36, 37, 38, 39, 40, 41, 42, 43, 44, 45, 46, 47, 48, 49, 50, 51, 52, 53, 54, 55, 56, 57, 58, 59, 60, 61, 62, 63, 64, 65, 66, 67, 68, 69, 70, 71, 72, 73, 74, 75, 76, 77, 78, 79, 80, 81, 82, 83, 84, 85, 86, 87, 88, 89, 90, 91, 92, 93, 94, 95, 96, 97, 98, 99, 100, 101, 102, 103, 104, 105, 106, 107, 108, 109, 110, 111, 112, 113, 114, 115, 116, 117, 118, 119, 120, 121, 122, 123, 124, 125, 126, 127, 128, 129, 130, 131, 132, 133, 134, 135, 136, 137, 138, 139, 140, 141, 142, 143, 144, 145, 146, 147, 148, 149, 150, 151, 152, 153, 154, 155, 156, 157, 158, 159, 160, 161, 162, 163, 164],
      "LargestImagePixelValue": [2244, 2191, 2179, 2189, 2155, 2149, 2172, 2165, 2166, 2164, 2163, 2159, 2160, 2173, 2168, 2163, 2179, 2173, 2169, 2168, 2152, 2183, 2163, 2172, 2170, 2201, 2196, 2203, 2178, 2171, 2192, 2189, 2211, 2209, 2183, 2212, 2178, 2176, 2196, 2187, 2180, 2183, 2183, 2212, 2183, 2163, 2197, 2194, 2219, 2231, 2199, 2173, 2169, 2190, 2182, 2203, 2204, 2224, 2188, 2190, 2200, 2213, 2200, 2207, 2186, 2194, 2196, 2188, 2188, 2193, 2183, 2185, 2192, 2171, 2176, 2151, 2164, 2168, 2155, 2169, 2192, 2177, 2164, 2174, 2178, 2179, 2215, 2210, 2217, 2225, 2211, 2200, 2194, 2180, 2181, 2209, 2200, 2221, 2194, 2201, 2222, 2208, 2222, 2215, 2220, 2191, 2185, 2198, 2202, 2199, 2201, 2187, 2192, 2231, 2220, 2221, 2225, 2215, 2223, 2201, 2226, 2222, 2237, 2212, 2221, 2233, 2246, 2192, 2220, 2235, 2215, 2208, 2200, 2211, 2192, 2232, 2216, 2240, 2204, 2211, 2195, 2209, 2183, 2217, 2205, 2223, 2264, 2205, 2207, 2220, 2194, 2205, 2206, 2196, 2213, 2200, 2209, 2252, 2185, 2207, 2183, 2238, 2215, 2212],
      "WindowCenter": [750.0, 748.0, 748.0, 747.0, 747.0, 746.0, 747.0, 746.0, 746.0, 746.0, 746.0, 746.0, 747.0, 747.0, 747.0, 747.0, 747.0, 747.0, 747.0, 747.0, 747.0, 747.0, 748.0, 748.0, 748.0, 748.0, 748.0, 747.0, 747.0, 748.0, 748.0, 748.0, 748.0, 748.0, 747.0, 747.0, 747.0, 748.0, 748.0, 748.0, 747.0, 747.0, 748.0, 748.0, 747.0, 747.0, 748.0, 749.0, 749.0, 748.0, 748.0, 747.0, 748.0, 748.0, 749.0, 748.0, 748.0, 748.0, 748.0, 748.0, 748.0, 748.0, 748.0, 748.0, 747.0, 748.0, 748.0, 748.0, 748.0, 747.0, 747.0, 747.0, 747.0, 746.0, 746.0, 746.0, 746.0, 746.0, 747.0, 747.0, 747.0, 747.0, 747.0, 747.0, 748.0, 749.0, 749.0, 749.0, 749.0, 749.0, 748.0, 748.0, 748.0, 748.0, 748.0, 749.0, 749.0, 748.0, 748.0, 749.0, 749.0, 749.0, 749.0, 749.0, 749.0, 748.0, 749.0, 749.0, 749.0, 749.0, 749.0, 749.0, 750.0, 751.0, 750.0, 750.0, 749.0, 749.0, 749.0, 749.0, 750.0, 749.0, 749.0, 749.0, 749.0, 749.0, 749.0, 749.0, 749.0, 749.0, 749.0, 749.0, 749.0, 749.0, 750.0, 750.0, 750.0, 749.0, 748.0, 748.0, 748.0, 749.0, 749.0, 750.0, 750.0, 750.0, 749.0, 749.0, 749.0, 749.0, 749.0, 749.0, 750.0, 750.0, 750.0, 750.0, 750.0, 750.0, 749.0, 750.0, 750.0, 751.0, 751.0, 751.0],
      "WindowWidth": [1668.0, 1661.0, 1659.0, 1656.0, 1655.0, 1655.0, 1655.0, 1655.0, 1654.0, 1654.0, 1654.0, 1654.0, 1655.0, 1657.0, 1658.0, 1658.0, 1657.0, 1658.0, 1656.0, 1656.0, 1657.0, 1658.0, 1659.0, 1660.0, 1660.0, 1661.0, 1659.0, 1657.0, 1657.0, 1659.0, 1660.0, 1661.0, 1661.0, 1658.0, 1657.0, 1658.0, 1657.0, 1659.0, 1658.0, 1658.0, 1658.0, 1657.0, 1659.0, 1658.0, 1656.0, 1657.0, 1661.0, 1663.0, 1662.0, 1660.0, 1658.0, 1658.0, 1658.0, 1659.0, 1661.0, 1660.0, 1660.0, 1659.0, 1659.0, 1660.0, 1660.0, 1660.0, 1659.0, 1658.0, 1657.0, 1659.0, 1658.0, 1658.0, 1658.0, 1658.0, 1657.0, 1657.0, 1655.0, 1654.0, 1654.0, 1652.0, 1653.0, 1653.0, 1655.0, 1656.0, 1657.0, 1655.0, 1655.0, 1657.0, 1660.0, 1662.0, 1662.0, 1663.0, 1663.0, 1662.0, 1660.0, 1659.0, 1658.0, 1660.0, 1660.0, 1661.0, 1662.0, 1661.0, 1661.0, 1662.0, 1662.0, 1663.0, 1664.0, 1662.0, 1662.0, 1661.0, 1662.0, 1663.0, 1662.0, 1662.0, 1661.0, 1663.0, 1666.0, 1668.0, 1666.0, 1664.0, 1662.0, 1662.0, 1662.0, 1664.0, 1664.0, 1664.0, 1663.0, 1663.0, 1664.0, 1663.0, 1662.0, 1662.0, 1663.0, 1663.0, 1663.0, 1661.0, 1661.0, 1663.0, 1664.0, 1665.0, 1665.0, 1663.0, 1660.0, 1659.0, 1660.0, 1662.0, 1664.0, 1664.0, 1665.0, 1664.0, 1664.0, 1663.0, 1662.0, 1661.0, 1661.0, 1664.0, 1665.0, 1666.0, 1665.0, 1665.0, 1664.0, 1665.0, 1662.0, 1664.0, 1666.0, 1667.0, 1668.0, 1667.0]
    },
    "slices": {}
  }
}