{
  "AcquisitionMatrixPE": 64,
  "AcquisitionNumber": 1,
  "AcquisitionTime": "13:24:30.935000",
  "BandwidthPerPixelPhaseEncode": 33.967,
  "BaseResolution": 64,
  "CoilCombinationMethod": "Sum of Squares",
  "CoilString": "C:HEA;HEP",
  "ConversionSoftware": "dcm2niix",
  "ConversionSoftwareVersion": "v1.0.20220720",
  "DerivedVendorReportedEchoSpacing": 0.000460005,
  "DeviceSerialNumber": "35193",
  "DwellTime": 3.1e-06,
  "EchoTime": 0.03,
  "EffectiveEchoSpacing": 0.000460005,
  "FlipAngle": 90,
  "HeudiconvVersion": "1.1.6",
  "ImageOrientationPatientDICOM": [0.999907, 0.00872654, -0.0104714, -0.00872606, 0.999962, 9.13823e-05],
  "ImageOrientationText": "Tra>Sag(-0.6)",
  "ImageType": [
    "ORIGINAL",
    "PRIMARY",
    "M",
    "ND",
    "MOSAIC"
],
  "ImagingFrequency": 123.254,
  "InPlanePhaseEncodingDirectionDICOM": "COL",
  "InstitutionAddress": "Xinjiekouwai Street No 19,Beijing,Haidian District,CN,100875",
  "InstitutionName": "BNU MRI Center",
  "InstitutionalDepartmentName": "Department",
  "MRAcquisitionType": "2D",
  "MagneticFieldStrength": 3,
  "Manufacturer": "Siemens",
  "ManufacturersModelName": "TrioTim",
  "MatrixCoilMode": "SENSE",
  "Modality": "MR",
  "NonlinearGradientCorrection": false,
  "PartialFourier": 1,
  "PatientPosition": "HFS",
  "PercentPhaseFOV": 100,
  "PercentSampling": 100,
  "PhaseEncodingDirection": "j-",
  "PhaseEncodingSteps": 64,
  "PhaseResolution": 1,
  "PixelBandwidth": 2520,
  "ProcedureStepDescription": "BNU_cst_2015^Guo.TaoMei",
  "ProtocolName": "ge_func_3x3x4_164",
  "PulseSequenceDetails": "%SiemensSeq%\\ep2d_bold",
  "ReceiveCoilName": "HeadMatrix",
  "ReconMatrixPE": 64,
  "RepetitionTime": 2,
  "SAR": 0.122761,
  "ScanOptions": "FS",
  "ScanningSequence": "EP",
  "SequenceName": "*epfid2d1_64",
  "SequenceVariant": "SK",
  "SeriesDescription": "ge_func_3x3x4_164",
  "SeriesNumber": 4,
  "ShimSetting": [-4510, -19416, -9846, 974, -236, -364, -55, -20],
  "SliceThickness": 4,
  "SliceTiming": [0, 1.0325, 0.06, 1.095, 0.12, 1.155, 0.1825, 1.215, 0.2425, 1.2775, 0.3025, 1.3375, 0.365, 1.3975, 0.425, 1.46, 0.485, 1.52, 0.5475, 1.58, 0.6075, 1.6425, 0.6675, 1.7025, 0.73, 1.7625, 0.79, 1.825, 0.85, 1.885, 0.9125, 1.945, 0.9725],
  "SoftwareVersions": "syngo MR B17",
  "SpacingBetweenSlices": 4.6,
  "StationName": "MRC35193",
  "TaskName": "LanguageControl",
  "TotalReadoutTime": 0.0289803,
  "TxRefAmp": 328.235,
  "dcmmeta_affine": [
    [-3.1247096061706543, -0.027268948033452034, -0.04817020893096924, 104.3055648803711],
    [-0.027270441874861717, 3.1248810291290283, -7.765753040622769e-10, -84.52877807617188],
    [-0.0327230803668499, -0.0002855696657206863, 4.599747657775879, -63.09419250488281],
    [0.0, 0.0, 0.0, 1.0]
],
  "dcmmeta_reorient_transform": [
    [0.0, -1.0, 0.0, 63.0],
    [1.0, 0.0, 0.0, 0.0],
    [0.0, 0.0, 1.0, 0.0],
    [0.0, 0.0, 0.0, 1.0]
],
  "dcmmeta_shape": [64, 64, 33, 164],
  "dcmmeta_slice_dim": 2,
  "dcmmeta_version": 0.6,
  "global": {
    "const": {
      "AcquisitionMatrix": [64, 0, 0, 64],
      "AngioFlag": "N",
      "BitsAllocated": 16,
      "BitsStored": 12,
      "Columns": 384,
      "EchoNumbers": 1,
      "EchoTime": 30.0,
      "EchoTrainLength": 1,
      "FlipAngle": 90.0,
      "HighBit": 11,
      "ImageOrientationPatient": [0.99990709446167, 0.00872654164885, -0.010471385585, -0.0087260631688, 0.9999619230105, 9.138229318e-05],
      "ImagePositionPatient": [-598.17813719881, -616.682957946, -57.922182656238],
      "ImageType": [
        "ORIGINAL",
        "PRIMARY",
        "M",
        "ND",
        "MOSAIC"
],
      "ImagedNucleus": "1H",
      "ImagingFrequency": 123.253727,
      "InPlanePhaseEncodingDirection": "COL",
      "MRAcquisitionType": "2D",
      "MagneticFieldStrength": 3.0,
      "Manufacturer": "SIEMENS",
      "ManufacturerModelName": "TrioTim",
      "Modality": "MR",
      "NumberOfAverages": 1.0,
      "NumberOfPhaseEncodingSteps": 64,
      "PercentPhaseFieldOfView": 100.0,
      "PercentSampling": 100.0,
      "PerformedProcedureStepStartTime": "130916.140000",
      "PhotometricInterpretation": "MONOCHROME2",
      "PixelBandwidth": 2520.0,
      "PixelRepresentation": 0,
      "PixelSpacing": [3.125, 3.125],
      "ProtocolName": "ge_func_3x3x4_164",
      "RepetitionTime": 2000.0,
      "Rows": 384,
      "SAR": 0.12276131820228,
      "SamplesPerPixel": 1,
      "ScanOptions": "FS",
      "ScanningSequence": "EP",
      "SequenceName": "*epfid2d1_64",
      "SequenceVariant": "SK",
      "SeriesDescription": "ge_func_3x3x4_164",
      "SeriesNumber": 4,
      "SeriesTime": "132527.062000",
      "SliceLocation": -64.182999286435,
      "SliceThickness": 4.0,
      "SmallestImagePixelValue": 0,
      "SoftwareVersions": "syngo MR B17",
      "SpacingBetweenSlices": 4.6000001170886,
      "SpecificCharacterSet": "ISO_IR 100",
      "StudyID": "1",
      "StudyTime": "130916.062000",
      "TransmitCoilName": "Body",
      "VariableFlipAngleFlag": "N",
      "WindowCenterWidthExplanation": "Algo1",
      "dBdt": 0.0},
    "slices": {}
  },
  "time": {
    "samples": {
      "AcquisitionNumber": [1, 2, 3, 4, 5, 6, 7, 8, 9, 10, 11, 12, 13, 14, 15, 16, 17, 18, 19, 20, 21, 22, 23, 24, 25, 26, 27, 28, 29, 30, 31, 32, 33, 34, 35, 36, 37, 38, 39, 40, 41, 42, 43, 44, 45, 46, 47, 48, 49, 50, 51, 52, 53, 54, 55, 56, 57, 58, 59, 60, 61, 62, 63, 64, 65, 66, 67, 68, 69, 70, 71, 72, 73, 74, 75, 76, 77, 78, 79, 80, 81, 82, 83, 84, 85, 86, 87, 88, 89, 90, 91, 92, 93, 94, 95, 96, 97, 98, 99, 100, 101, 102, 103, 104, 105, 106, 107, 108, 109, 110, 111, 112, 113, 114, 115, 116, 117, 118, 119, 120, 121, 122, 123, 124, 125, 126, 127, 128, 129, 130, 131, 132, 133, 134, 135, 136, 137, 138, 139, 140, 141, 142, 143, 144, 145, 146, 147, 148, 149, 150, 151, 152, 153, 154, 155, 156, 157, 158, 159, 160, 161, 162, 163, 164],
      "AcquisitionTime": ["132430.935000", "132432.942500", "132434.950000", "132436.957500", "132438.965000", "132440.975000", "132442.982500", "132444.990000", "132446.997500", "132449.005000", "132451.015000", "132453.022500", "132455.030000", "132457.037500", "132459.047500", "132501.055000", "132503.062500", "132505.070000", "132507.077500", "132509.087500", "132511.095000", "132513.102500", "132515.110000", "132517.117500", "132519.127500", "132521.135000", "132523.142500", "132525.150000", "132527.160000", "132529.167500", "132531.175000", "132533.182500", "132535.190000", "132537.200000", "132539.207500", "132541.215000", "132543.222500", "132545.230000", "132547.240000", "132549.247500", "132551.255000", "132553.262500", "132555.270000", "132557.280000", "132559.287500", "132601.295000", "132603.302500", "132605.312500", "132607.320000", "132609.327500", "132611.335000", "132613.342500", "132615.352500", "132617.360000", "132619.367500", "132621.375000", "132623.382500", "132625.392500", "132627.400000", "132629.407500", "132631.415000", "132633.425000", "132635.432500", "132637.440000", "132639.447500", "132641.455000", "132643.465000", "132645.472500", "132647.480000", "132649.487500", "132651.495000", "132653.505000", "132655.512500", "132657.520000", "132659.527500", "132701.537500", "132703.545000", "132705.552500", "132707.560000", "132709.567500", "132711.577500", "132713.585000", "132715.592500", "132717.600000", "132719.607500", "132721.617500", "132723.625000", "132725.632500", "132727.640000", "132729.647500", "132731.657500", "132733.665000", "132735.672500", "132737.680000", "132739.690000", "132741.697500", "132743.705000", "132745.712500", "132747.720000", "132749.730000", "132751.737500", "132753.745000", "132755.752500", "132757.760000", "132759.770000", "132801.777500", "132803.785000", "132805.792500", "132807.802500", "132809.810000", "132811.817500", "132813.825000", "132815.832500", "132817.842500", "132819.850000", "132821.857500", "132823.865000", "132825.872500", "132827.882500", "132829.890000", "132831.897500", "132833.905000", "132835.915000", "132837.922500", "132839.930000", "132841.937500", "132843.945000", "132845.955000", "132847.962500", "132849.970000", "132851.977500", "132853.985000", "132855.995000", "132858.002500", "132900.010000", "132902.017500", "132904.025000", "132906.035000", "132908.042500", "132910.050000", "132912.057500", "132914.067500", "132916.075000", "132918.082500", "132920.090000", "132922.097500", "132924.107500", "132926.115000", "132928.122500", "132930.130000", "132932.137500", "132934.147500", "132936.155000", "132938.162500", "132940.170000", "132942.180000", "132944.187500", "132946.195000", "132948.202500", "132950.210000", "132952.220000", "132954.227500", "132956.235000", "132958.242500"],
      "ContentTime": ["132527.062000", "132527.078000", "132527.078000", "132527.078000", "132527.078000", "132527.078000", "132527.078000", "132527.078000", "132527.078000", "132527.093000", "132527.093000", "132527.093000", "132527.093000", "132527.093000", "132527.093000", "132527.109000", "132527.109000", "132527.109000", "132527.109000", "132527.109000", "132527.109000", "132527.125000", "132527.125000", "132527.125000", "132527.125000", "132527.125000", "132527.125000", "132607.062000", "132607.062000", "132607.062000", "132607.062000", "132607.078000", "132607.078000", "132607.078000", "132607.078000", "132607.078000", "132607.093000", "132607.093000", "132607.093000", "132607.093000", "132607.093000", "132607.093000", "132607.093000", "132607.093000", "132607.093000", "132607.109000", "132607.109000", "132647.062000", "132647.062000", "132647.062000", "132647.062000", "132647.062000", "132647.078000", "132647.078000", "132647.078000", "132647.078000", "132647.093000", "132647.093000", "132647.093000", "132647.093000", "132647.093000", "132647.093000", "132647.093000", "132647.109000", "132647.109000", "132647.109000", "132647.109000", "132727.062000", "132727.062000", "132727.062000", "132727.062000", "132727.062000", "132727.078000", "132727.078000", "132727.078000", "132727.078000", "132727.078000", "132727.078000", "132727.078000", "132727.078000", "132727.093000", "132727.093000", "132727.093000", "132727.093000", "132727.093000", "132727.093000", "132727.093000", "132807.062000", "132807.062000", "132807.078000", "132807.078000", "132807.078000", "132807.078000", "132807.078000", "132807.078000", "132807.078000", "132807.093000", "132807.093000", "132807.109000", "132807.109000", "132807.109000", "132807.109000", "132807.109000", "132807.109000", "132807.109000", "132807.125000", "132807.125000", "132847.062000", "132847.062000", "132847.062000", "132847.062000", "132847.062000", "132847.078000", "132847.078000", "132847.078000", "132847.078000", "132847.078000", "132847.078000", "132847.078000", "132847.078000", "132847.093000", "132847.093000", "132847.093000", "132847.093000", "132847.093000", "132847.093000", "132847.093000", "132927.062000", "132927.062000", "132927.062000", "132927.062000", "132927.078000", "132927.078000", "132927.078000", "132927.078000", "132927.078000", "132927.078000", "132927.093000", "132927.093000", "132927.093000", "132927.093000", "132927.093000", "132927.093000", "132927.093000", "132927.109000", "132927.109000", "132927.109000", "132959.765000", "132959.765000", "132959.765000", "132959.765000", "132959.765000", "132959.781000", "132959.781000", "132959.781000", "132959.781000", "132959.781000", "132959.781000", "132959.781000", "132959.781000", "132959.796000", "132959.796000", "132959.796000", "132959.796000"],
      "InstanceCreationTime": ["132527.062000", "132527.078000", "132527.078000", "132527.078000", "132527.078000", "132527.078000", "132527.078000", "132527.078000", "132527.078000", "132527.093000", "132527.093000", "132527.093000", "132527.093000", "132527.093000", "132527.093000", "132527.109000", "132527.109000", "132527.109000", "132527.109000", "132527.109000", "132527.109000", "132527.125000", "132527.125000", "132527.125000", "132527.125000", "132527.125000", "132527.125000", "132607.062000", "132607.062000", "132607.062000", "132607.062000", "132607.078000", "132607.078000", "132607.078000", "132607.078000", "132607.078000", "132607.093000", "132607.093000", "132607.093000", "132607.093000", "132607.093000", "132607.093000", "132607.093000", "132607.093000", "132607.093000", "132607.109000", "132607.109000", "132647.062000", "132647.062000", "132647.062000", "132647.062000", "132647.062000", "132647.078000", "132647.078000", "132647.078000", "132647.078000", "132647.093000", "132647.093000", "132647.093000", "132647.093000", "132647.093000", "132647.093000", "132647.093000", "132647.109000", "132647.109000", "132647.109000", "132647.109000", "132727.062000", "132727.062000", "132727.062000", "132727.062000", "132727.062000", "132727.078000", "132727.078000", "132727.078000", "132727.078000", "132727.078000", "132727.078000", "132727.078000", "132727.078000", "132727.093000", "132727.093000", "132727.093000", "132727.093000", "132727.093000", "132727.093000", "132727.093000", "132807.062000", "132807.062000", "132807.078000", "132807.078000", "132807.078000", "132807.078000", "132807.078000", "132807.078000", "132807.078000", "132807.093000", "132807.093000", "132807.109000", "132807.109000", "132807.109000", "132807.109000", "132807.109000", "132807.109000", "132807.109000", "132807.125000", "132807.125000", "132847.062000", "132847.062000", "132847.062000", "132847.062000", "132847.062000", "132847.078000", "132847.078000", "132847.078000", "132847.078000", "132847.078000", "132847.078000", "132847.078000", "132847.078000", "132847.093000", "132847.093000", "132847.093000", "132847.093000", "132847.093000", "132847.093000", "132847.093000", "132927.062000", "132927.062000", "132927.062000", "132927.062000", "132927.078000", "132927.078000", "132927.078000", "132927.078000", "132927.078000", "132927.078000", "132927.093000", "132927.093000", "132927.093000", "132927.093000", "132927.093000", "132927.093000", "132927.093000", "132927.109000", "132927.109000", "132927.109000", "132959.765000", "132959.765000", "132959.765000", "132959.765000", "132959.765000", "132959.781000", "132959.781000", "132959.781000", "132959.781000", "132959.781000", "132959.781000", "132959.781000", "132959.781000", "132959.796000", "132959.796000", "132959.796000", "132959.796000"],
      "InstanceNumber": [1, 2, 3, 4, 5, 6, 7, 8, 9, 10, 11, 12, 13, 14, 15, 16, 17, 18, 19, 20, 21, 22, 23, 24, 25, 26, 27, 28, 29, 30, 31, 32, 33, 34, 35, 36, 37, 38, 39, 40, 41, 42, 43, 44, 45, 46, 47, 48, 49, 50, 51, 52, 53, 54, 55, 56, 57, 58, 59, 60, 61, 62, 63, 64, 65, 66, 67, 68, 69, 70, 71, 72, 73, 74, 75, 76, 77, 78, 79, 80, 81, 82, 83, 84, 85, 86, 87, 88, 89, 90, 91, 92, 93, 94, 95, 96, 97, 98, 99, 100, 101, 102, 103, 104, 105, 106, 107, 108, 109, 110, 111, 112, 113, 114, 115, 116, 117, 118, 119, 120, 121, 122, 123, 124, 125, 126, 127, 128, 129, 130, 131, 132, 133, 134, 135, 136, 137, 138, 139, 140, 141, 142, 143, 144, 145, 146, 147, 148, 149, 150, 151, 152, 153, 154, 155, 156, 157, 158, 159, 160, 161, 162, 163, 164],
      "LargestImagePixelValue": [2266, 2226, 2214, 2227, 2206, 2227, 2201, 2186, 2185, 2176, 2160, 2182, 2182, 2211, 2221, 2218, 2231, 2239, 2178, 2214, 2221, 2216, 2197, 2220, 2231, 2200, 2227, 2219, 2261, 2234, 2246, 2258, 2275, 2259, 2263, 2240, 2223, 2216, 2184, 2202, 2184, 2218, 2219, 2212, 2248, 2204, 2221, 2215, 2242, 2190, 2201, 2221, 2208, 2211, 2253, 2221, 2208, 2258, 2249, 2264, 2243, 2254, 2246, 2241, 2188, 2213, 2221, 2206, 2216, 2252, 2240, 2218, 2262, 2199, 2236, 2216, 2190, 2234, 2267, 2240, 2219, 2258, 2251, 2283, 2243, 2270, 2242, 2233, 2244, 2268, 2239, 2260, 2233, 2227, 2222, 2221, 2219, 2204, 2185, 2216, 2211, 2209, 2216, 2275, 2242, 2258, 2243, 2239, 2242, 2254, 2245, 2238, 2242, 2194, 2193, 2176, 2180, 2170, 2188, 2198, 2201, 2192, 2154, 2167, 2180, 2162, 2157, 2159, 2145, 2182, 2168, 2194, 2231, 2244, 2238, 2194, 2206, 2193, 2217, 2265, 2243, 2275, 2220, 2183, 2180, 2168, 2177, 2181, 2202, 2189, 2192, 2184, 2171, 2172, 2179, 2164, 2167, 2158, 2184, 2177, 2176, 2176, 2192, 2199],
      "WindowCenter": [753.0, 750.0, 750.0, 750.0, 750.0, 749.0, 749.0, 749.0, 749.0, 750.0, 750.0, 751.0, 751.0, 751.0, 751.0, 750.0, 750.0, 749.0, 750.0, 751.0, 750.0, 750.0, 750.0, 750.0, 750.0, 750.0, 750.0, 750.0, 750.0, 750.0, 751.0, 751.0, 752.0, 751.0, 750.0, 750.0, 751.0, 750.0, 750.0, 751.0, 751.0, 751.0, 751.0, 751.0, 751.0, 750.0, 750.0, 750.0, 750.0, 749.0, 750.0, 750.0, 750.0, 751.0, 751.0, 751.0, 751.0, 751.0, 751.0, 752.0, 751.0, 751.0, 750.0, 750.0, 749.0, 750.0, 750.0, 750.0, 751.0, 750.0, 750.0, 751.0, 751.0, 750.0, 750.0, 751.0, 751.0, 751.0, 751.0, 751.0, 751.0, 751.0, 751.0, 751.0, 751.0, 751.0, 750.0, 750.0, 750.0, 751.0, 751.0, 751.0, 750.0, 750.0, 750.0, 750.0, 750.0, 751.0, 750.0, 751.0, 751.0, 751.0, 752.0, 752.0, 752.0, 751.0, 751.0, 752.0, 752.0, 751.0, 751.0, 750.0, 750.0, 750.0, 749.0, 749.0, 750.0, 750.0, 750.0, 750.0, 750.0, 750.0, 749.0, 749.0, 749.0, 748.0, 748.0, 749.0, 749.0, 750.0, 750.0, 750.0, 751.0, 751.0, 751.0, 751.0, 751.0, 751.0, 751.0, 751.0, 752.0, 751.0, 750.0, 750.0, 750.0, 750.0, 751.0, 751.0, 751.0, 751.0, 751.0, 751.0, 751.0, 752.0, 751.0, 751.0, 751.0, 751.0, 751.0, 751.0, 751.0, 751.0, 750.0, 750.0],
      "WindowWidth": [1674.0, 1667.0, 1665.0, 1665.0, 1664.0, 1662.0, 1661.0, 1663.0, 1663.0, 1666.0, 1666.0, 1668.0, 1669.0, 1668.0, 1667.0, 1665.0, 1665.0, 1664.0, 1665.0, 1667.0, 1665.0, 1666.0, 1665.0, 1667.0, 1667.0, 1666.0, 1666.0, 1666.0, 1666.0, 1667.0, 1668.0, 1670.0, 1671.0, 1671.0, 1667.0, 1667.0, 1668.0, 1667.0, 1666.0, 1669.0, 1667.0, 1668.0, 1669.0, 1669.0, 1669.0, 1666.0, 1666.0, 1665.0, 1664.0, 1664.0, 1666.0, 1667.0, 1666.0, 1669.0, 1670.0, 1667.0, 1669.0, 1670.0, 1670.0, 1671.0, 1669.0, 1668.0, 1666.0, 1665.0, 1663.0, 1664.0, 1665.0, 1666.0, 1667.0, 1667.0, 1666.0, 1668.0, 1667.0, 1665.0, 1666.0, 1667.0, 1668.0, 1668.0, 1669.0, 1669.0, 1669.0, 1669.0, 1670.0, 1668.0, 1667.0, 1668.0, 1666.0, 1665.0, 1666.0, 1667.0, 1668.0, 1668.0, 1666.0, 1665.0, 1665.0, 1664.0, 1664.0, 1667.0, 1665.0, 1667.0, 1669.0, 1670.0, 1670.0, 1672.0, 1671.0, 1669.0, 1668.0, 1670.0, 1672.0, 1669.0, 1667.0, 1666.0, 1664.0, 1664.0, 1663.0, 1663.0, 1665.0, 1664.0, 1664.0, 1665.0, 1664.0, 1663.0, 1662.0, 1662.0, 1661.0, 1659.0, 1659.0, 1661.0, 1663.0, 1664.0, 1666.0, 1665.0, 1667.0, 1669.0, 1666.0, 1666.0, 1666.0, 1667.0, 1669.0, 1669.0, 1670.0, 1668.0, 1665.0, 1663.0, 1665.0, 1664.0, 1666.0, 1666.0, 1666.0, 1666.0, 1667.0, 1667.0, 1668.0, 1670.0, 1668.0, 1668.0, 1668.0, 1666.0, 1667.0, 1667.0, 1666.0, 1666.0, 1664.0, 1663.0]
    },
    "slices": {}
  }
}