{
  "AcquisitionMatrixPE": 64,
  "AcquisitionNumber": 1,
  "AcquisitionTime": "13:31:4.382500",
  "BandwidthPerPixelPhaseEncode": 33.967,
  "BaseResolution": 64,
  "CoilCombinationMethod": "Sum of Squares",
  "CoilString": "C:HEA;HEP",
  "ConversionSoftware": "dcm2niix",
  "ConversionSoftwareVersion": "v1.0.20220720",
  "DerivedVendorReportedEchoSpacing": 0.000460005,
  "DeviceSerialNumber": "35193",
  "DwellTime": 3.1e-06,
  "EchoTime": 0.03,
  "EffectiveEchoSpacing": 0.000460005,
  "FlipAngle": 90,
  "HeudiconvVersion": "1.1.6",
  "ImageOrientationPatientDICOM": [1, 0, 0, 0, 1, 0],
  "ImageOrientationText": "Tra",
  "ImageType": [
    "ORIGINAL",
    "PRIMARY",
    "M",
    "ND",
    "MOSAIC"
],
  "ImagingFrequency": 123.254,
  "InPlanePhaseEncodingDirectionDICOM": "COL",
  "InstitutionAddress": "Xinjiekouwai Street No 19,Beijing,Haidian District,CN,100875",
  "InstitutionName": "BNU MRI Center",
  "InstitutionalDepartmentName": "Department",
  "MRAcquisitionType": "2D",
  "MagneticFieldStrength": 3,
  "Manufacturer": "Siemens",
  "ManufacturersModelName": "TrioTim",
  "MatrixCoilMode": "SENSE",
  "Modality": "MR",
  "NonlinearGradientCorrection": false,
  "PartialFourier": 1,
  "PatientPosition": "HFS",
  "PercentPhaseFOV": 100,
  "PercentSampling": 100,
  "PhaseEncodingDirection": "j-",
  "PhaseEncodingSteps": 64,
  "PhaseResolution": 1,
  "PixelBandwidth": 2520,
  "ProcedureStepDescription": "BNU_cst_2015^Guo.TaoMei",
  "ProtocolName": "ge_func_3x3x4_164",
  "PulseSequenceDetails": "%SiemensSeq%\\ep2d_bold",
  "ReceiveCoilName": "HeadMatrix",
  "ReconMatrixPE": 64,
  "RepetitionTime": 2,
  "SAR": 0.1158,
  "ScanOptions": "FS",
  "ScanningSequence": "EP",
  "SequenceName": "*epfid2d1_64",
  "SequenceVariant": "SK",
  "SeriesDescription": "ge_func_3x3x4_164",
  "SeriesNumber": 2,
  "ShimSetting": [-4514, -19293, -9833, 1125, -296, -808, -162, -44],
  "SliceThickness": 4,
  "SliceTiming": [0, 1.035, 0.0625, 1.095, 0.1225, 1.1575, 0.1825, 1.2175, 0.245, 1.2775, 0.305, 1.34, 0.365, 1.4, 0.4275, 1.46, 0.4875, 1.5225, 0.5475, 1.5825, 0.61, 1.6425, 0.67, 1.705, 0.73, 1.765, 0.7925, 1.825, 0.8525, 1.8875, 0.9125, 1.9475, 0.975],
  "SoftwareVersions": "syngo MR B17",
  "SpacingBetweenSlices": 4.6,
  "StationName": "MRC35193",
  "TaskName": "LanguageControl",
  "TotalReadoutTime": 0.0289803,
  "TxRefAmp": 357.322,
  "dcmmeta_affine": [
    [-3.125, 0.0, 0.0, 102.69879150390625],
    [0.0, 3.125, 0.0, -84.73042297363281],
    [0.0, 0.0, 4.599999904632568, -83.04578399658203],
    [0.0, 0.0, 0.0, 1.0]
],
  "dcmmeta_reorient_transform": [
    [0.0, -1.0, 0.0, 63.0],
    [1.0, 0.0, 0.0, 0.0],
    [0.0, 0.0, 1.0, 0.0],
    [0.0, 0.0, 0.0, 1.0]
],
  "dcmmeta_shape": [64, 64, 33, 164],
  "dcmmeta_slice_dim": 2,
  "dcmmeta_version": 0.6,
  "global": {
    "const": {
      "AcquisitionMatrix": [64, 0, 0, 64],
      "AngioFlag": "N",
      "BitsAllocated": 16,
      "BitsStored": 12,
      "Columns": 384,
      "EchoNumbers": 1,
      "EchoTime": 30.0,
      "EchoTrainLength": 1,
      "FlipAngle": 90.0,
      "HighBit": 11,
      "ImageOrientationPatient": [1.0, 0.0, 0.0, 0.0, 1.0, 0.0],
      "ImagePositionPatient": [-602.69879508018, -612.14457798004, -83.045783996582],
      "ImageType": [
        "ORIGINAL",
        "PRIMARY",
        "M",
        "ND",
        "MOSAIC"
],
      "ImagedNucleus": "1H",
      "ImagingFrequency": 123.253723,
      "InPlanePhaseEncodingDirection": "COL",
      "MRAcquisitionType": "2D",
      "MagneticFieldStrength": 3.0,
      "Manufacturer": "SIEMENS",
      "ManufacturerModelName": "TrioTim",
      "Modality": "MR",
      "NumberOfAverages": 1.0,
      "NumberOfPhaseEncodingSteps": 64,
      "PercentPhaseFieldOfView": 100.0,
      "PercentSampling": 100.0,
      "PerformedProcedureStepStartTime": "132856.171000",
      "PhotometricInterpretation": "MONOCHROME2",
      "PixelBandwidth": 2520.0,
      "PixelRepresentation": 0,
      "PixelSpacing": [3.125, 3.125],
      "ProtocolName": "ge_func_3x3x4_164",
      "RepetitionTime": 2000.0,
      "Rows": 384,
      "SAR": 0.11580043556544,
      "SamplesPerPixel": 1,
      "ScanOptions": "FS",
      "ScanningSequence": "EP",
      "SequenceName": "*epfid2d1_64",
      "SequenceVariant": "SK",
      "SeriesDescription": "ge_func_3x3x4_164",
      "SeriesNumber": 2,
      "SeriesTime": "133159.125000",
      "SliceLocation": -83.045783996582,
      "SliceThickness": 4.0,
      "SmallestImagePixelValue": 0,
      "SoftwareVersions": "syngo MR B17",
      "SpacingBetweenSlices": 4.6000001430511,
      "SpecificCharacterSet": "ISO_IR 100",
      "StudyID": "1",
      "StudyTime": "132856.093000",
      "TransmitCoilName": "Body",
      "VariableFlipAngleFlag": "N",
      "WindowCenterWidthExplanation": "Algo1",
      "dBdt": 0.0},
    "slices": {}
  },
  "time": {
    "samples": {
      "AcquisitionNumber": [1, 2, 3, 4, 5, 6, 7, 8, 9, 10, 11, 12, 13, 14, 15, 16, 17, 18, 19, 20, 21, 22, 23, 24, 25, 26, 27, 28, 29, 30, 31, 32, 33, 34, 35, 36, 37, 38, 39, 40, 41, 42, 43, 44, 45, 46, 47, 48, 49, 50, 51, 52, 53, 54, 55, 56, 57, 58, 59, 60, 61, 62, 63, 64, 65, 66, 67, 68, 69, 70, 71, 72, 73, 74, 75, 76, 77, 78, 79, 80, 81, 82, 83, 84, 85, 86, 87, 88, 89, 90, 91, 92, 93, 94, 95, 96, 97, 98, 99, 100, 101, 102, 103, 104, 105, 106, 107, 108, 109, 110, 111, 112, 113, 114, 115, 116, 117, 118, 119, 120, 121, 122, 123, 124, 125, 126, 127, 128, 129, 130, 131, 132, 133, 134, 135, 136, 137, 138, 139, 140, 141, 142, 143, 144, 145, 146, 147, 148, 149, 150, 151, 152, 153, 154, 155, 156, 157, 158, 159, 160, 161, 162, 163, 164],
      "AcquisitionTime": ["133104.382500", "133106.392500", "133108.400000", "133110.407500", "133112.415000", "133114.425000", "133116.432500", "133118.440000", "133120.447500", "133122.455000", "133124.465000", "133126.472500", "133128.480000", "133130.487500", "133132.495000", "133134.505000", "133136.512500", "133138.520000", "133140.527500", "133142.537500", "133144.545000", "133146.552500", "133148.560000", "133150.567500", "133152.577500", "133154.585000", "133156.592500", "133158.600000", "133200.607500", "133202.617500", "133204.625000", "133206.632500", "133208.640000", "133210.650000", "133212.657500", "133214.665000", "133216.672500", "133218.680000", "133220.690000", "133222.697500", "133224.705000", "133226.712500", "133228.720000", "133230.730000", "133232.737500", "133234.745000", "133236.752500", "133238.760000", "133240.770000", "133242.777500", "133244.785000", "133246.792500", "133248.802500", "133250.810000", "133252.817500", "133254.825000", "133256.832500", "133258.842500", "133300.850000", "133302.857500", "133304.865000", "133306.872500", "133308.882500", "133310.890000", "133312.897500", "133314.905000", "133316.915000", "133318.922500", "133320.930000", "133322.937500", "133324.945000", "133326.955000", "133328.962500", "133330.970000", "133332.977500", "133334.985000", "133336.995000", "133339.002500", "133341.010000", "133343.017500", "133345.027500", "133347.035000", "133349.042500", "133351.050000", "133353.057500", "133355.067500", "133357.075000", "133359.082500", "133401.090000", "133403.097500", "133405.107500", "133407.115000", "133409.122500", "133411.130000", "133413.140000", "133415.147500", "133417.155000", "133419.162500", "133421.170000", "133423.180000", "133425.187500", "133427.195000", "133429.202500", "133431.210000", "133433.220000", "133435.227500", "133437.235000", "133439.242500", "133441.250000", "133443.260000", "133445.267500", "133447.275000", "133449.282500", "133451.292500", "133453.300000", "133455.307500", "133457.315000", "133459.322500", "133501.332500", "133503.340000", "133505.347500", "133507.355000", "133509.362500", "133511.372500", "133513.380000", "133515.387500", "133517.395000", "133519.405000", "133521.412500", "133523.420000", "133525.427500", "133527.435000", "133529.445000", "133531.452500", "133533.460000", "133535.467500", "133537.475000", "133539.485000", "133541.492500", "133543.500000", "133545.507500", "133547.517500", "133549.525000", "133551.532500", "133553.540000", "133555.547500", "133557.557500", "133559.565000", "133601.572500", "133603.580000", "133605.587500", "133607.597500", "133609.605000", "133611.612500", "133613.620000", "133615.627500", "133617.637500", "133619.645000", "133621.652500", "133623.660000", "133625.670000", "133627.677500", "133629.685000", "133631.692500"],
      "ContentTime": ["133159.125000", "133159.125000", "133159.125000", "133159.140000", "133159.140000", "133159.140000", "133159.140000", "133159.140000", "133159.140000", "133159.140000", "133159.140000", "133159.140000", "133159.156000", "133159.156000", "133159.156000", "133159.156000", "133159.171000", "133159.171000", "133159.171000", "133159.171000", "133159.171000", "133159.171000", "133159.171000", "133159.171000", "133159.171000", "133159.187000", "133239.125000", "133239.125000", "133239.125000", "133239.125000", "133239.125000", "133239.125000", "133239.125000", "133239.125000", "133239.140000", "133239.140000", "133239.140000", "133239.140000", "133239.140000", "133239.140000", "133239.140000", "133239.140000", "133239.156000", "133239.156000", "133239.156000", "133239.156000", "133319.125000", "133319.125000", "133319.125000", "133319.125000", "133319.140000", "133319.140000", "133319.140000", "133319.140000", "133319.140000", "133319.156000", "133319.156000", "133319.156000", "133319.156000", "133319.171000", "133319.171000", "133319.171000", "133319.171000", "133319.171000", "133319.171000", "133319.171000", "133359.125000", "133359.125000", "133359.125000", "133359.125000", "133359.140000", "133359.140000", "133359.140000", "133359.140000", "133359.140000", "133359.140000", "133359.140000", "133359.140000", "133359.156000", "133359.156000", "133359.156000", "133359.171000", "133359.171000", "133359.171000", "133359.171000", "133359.171000", "133439.125000", "133439.125000", "133439.125000", "133439.140000", "133439.140000", "133439.140000", "133439.140000", "133439.140000", "133439.140000", "133439.140000", "133439.156000", "133439.156000", "133439.156000", "133439.156000", "133439.156000", "133439.156000", "133439.171000", "133439.171000", "133439.171000", "133439.171000", "133519.125000", "133519.125000", "133519.125000", "133519.125000", "133519.140000", "133519.140000", "133519.140000", "133519.140000", "133519.140000", "133519.140000", "133519.140000", "133519.140000", "133519.156000", "133519.156000", "133519.156000", "133519.156000", "133519.156000", "133519.156000", "133519.156000", "133519.156000", "133559.125000", "133559.125000", "133559.125000", "133559.125000", "133559.140000", "133559.140000", "133559.140000", "133559.140000", "133559.156000", "133559.156000", "133559.156000", "133559.156000", "133559.156000", "133559.156000", "133559.156000", "133559.156000", "133559.171000", "133559.171000", "133559.171000", "133559.171000", "133633.265000", "133633.265000", "133633.265000", "133633.265000", "133633.281000", "133633.281000", "133633.281000", "133633.281000", "133633.281000", "133633.281000", "133633.281000", "133633.281000", "133633.296000", "133633.296000", "133633.296000", "133633.296000", "133633.296000", "133633.296000"],
      "InstanceCreationTime": ["133159.125000", "133159.125000", "133159.125000", "133159.140000", "133159.140000", "133159.140000", "133159.140000", "133159.140000", "133159.140000", "133159.140000", "133159.140000", "133159.140000", "133159.156000", "133159.156000", "133159.156000", "133159.156000", "133159.171000", "133159.171000", "133159.171000", "133159.171000", "133159.171000", "133159.171000", "133159.171000", "133159.171000", "133159.171000", "133159.187000", "133239.125000", "133239.125000", "133239.125000", "133239.125000", "133239.125000", "133239.125000", "133239.125000", "133239.125000", "133239.140000", "133239.140000", "133239.140000", "133239.140000", "133239.140000", "133239.140000", "133239.140000", "133239.140000", "133239.156000", "133239.156000", "133239.156000", "133239.156000", "133319.125000", "133319.125000", "133319.125000", "133319.125000", "133319.140000", "133319.140000", "133319.140000", "133319.140000", "133319.140000", "133319.156000", "133319.156000", "133319.156000", "133319.156000", "133319.171000", "133319.171000", "133319.171000", "133319.171000", "133319.171000", "133319.171000", "133319.171000", "133359.125000", "133359.125000", "133359.125000", "133359.125000", "133359.140000", "133359.140000", "133359.140000", "133359.140000", "133359.140000", "133359.140000", "133359.140000", "133359.140000", "133359.156000", "133359.156000", "133359.156000", "133359.171000", "133359.171000", "133359.171000", "133359.171000", "133359.171000", "133439.125000", "133439.125000", "133439.125000", "133439.140000", "133439.140000", "133439.140000", "133439.140000", "133439.140000", "133439.140000", "133439.140000", "133439.156000", "133439.156000", "133439.156000", "133439.156000", "133439.156000", "133439.156000", "133439.171000", "133439.171000", "133439.171000", "133439.171000", "133519.125000", "133519.125000", "133519.125000", "133519.125000", "133519.140000", "133519.140000", "133519.140000", "133519.140000", "133519.140000", "133519.140000", "133519.140000", "133519.140000", "133519.156000", "133519.156000", "133519.156000", "133519.156000", "133519.156000", "133519.156000", "133519.156000", "133519.156000", "133559.125000", "133559.125000", "133559.125000", "133559.125000", "133559.140000", "133559.140000", "133559.140000", "133559.140000", "133559.156000", "133559.156000", "133559.156000", "133559.156000", "133559.156000", "133559.156000", "133559.156000", "133559.156000", "133559.171000", "133559.171000", "133559.171000", "133559.171000", "133633.265000", "133633.265000", "133633.265000", "133633.265000", "133633.281000", "133633.281000", "133633.281000", "133633.281000", "133633.281000", "133633.281000", "133633.281000", "133633.281000", "133633.296000", "133633.296000", "133633.296000", "133633.296000", "133633.296000", "133633.296000"],
      "InstanceNumber": [1, 2, 3, 4, 5, 6, 7, 8, 9, 10, 11, 12, 13, 14, 15, 16, 17, 18, 19, 20, 21, 22, 23, 24, 25, 26, 27, 28, 29, 30, 31, 32, 33, 34, 35, 36, 37, 38, 39, 40, 41, 42, 43, 44, 45, 46, 47, 48, 49, 50, 51, 52, 53, 54, 55, 56, 57, 58, 59, 60, 61, 62, 63, 64, 65, 66, 67, 68, 69, 70, 71, 72, 73, 74, 75, 76, 77, 78, 79, 80, 81, 82, 83, 84, 85, 86, 87, 88, 89, 90, 91, 92, 93, 94, 95, 96, 97, 98, 99, 100, 101, 102, 103, 104, 105, 106, 107, 108, 109, 110, 111, 112, 113, 114, 115, 116, 117, 118, 119, 120, 121, 122, 123, 124, 125, 126, 127, 128, 129, 130, 131, 132, 133, 134, 135, 136, 137, 138, 139, 140, 141, 142, 143, 144, 145, 146, 147, 148, 149, 150, 151, 152, 153, 154, 155, 156, 157, 158, 159, 160, 161, 162, 163, 164],
      "LargestImagePixelValue": [2106, 2001, 2012, 1996, 2011, 2362, 2218, 2021, 2016, 2011, 2005, 2248, 2035, 2032, 2015, 2011, 2000, 1990, 1997, 2004, 2014, 2030, 2040, 2022, 2024, 2020, 2034, 2018, 2026, 2030, 2035, 2035, 2017, 2025, 2010, 2088, 2037, 2036, 2021, 2046, 2032, 2047, 2049, 2037, 2041, 2064, 2021, 2029, 2006, 2021, 2026, 2023, 2049, 2046, 2030, 2023, 2022, 2019, 2047, 2014, 2016, 2007, 2003, 2415, 2308, 2040, 2058, 2023, 2003, 2024, 1990, 2013, 2019, 2024, 2021, 2031, 2022, 2018, 2021, 2037, 2020, 1999, 2006, 2003, 2107, 2027, 2012, 2018, 2020, 2014, 2103, 2018, 2374, 2013, 2017, 2020, 2008, 2005, 2002, 1988, 2009, 2002, 2015, 2019, 2035, 2002, 1992, 1974, 2182, 1998, 1984, 1987, 2630, 2011, 2004, 1990, 1966, 2254, 1996, 2114, 2008, 1985, 1977, 1996, 1983, 1994, 1991, 1981, 1997, 1991, 1981, 2172, 1979, 1976, 1987, 1973, 1975, 2223, 1988, 2011, 2291, 2643, 2071, 1987, 2007, 1997, 1992, 1992, 1972, 2098, 1962, 1983, 1991, 1988, 1975, 2015, 1990, 1996, 1985, 1991, 2514, 2435, 1975, 1967],
      "WindowCenter": [771.0, 769.0, 770.0, 769.0, 768.0, 768.0, 766.0, 767.0, 769.0, 770.0, 768.0, 770.0, 768.0, 766.0, 768.0, 769.0, 770.0, 769.0, 768.0, 768.0, 768.0, 769.0, 770.0, 769.0, 770.0, 770.0, 770.0, 770.0, 769.0, 768.0, 768.0, 769.0, 770.0, 770.0, 769.0, 769.0, 770.0, 770.0, 770.0, 769.0, 770.0, 769.0, 768.0, 769.0, 770.0, 770.0, 770.0, 770.0, 771.0, 770.0, 770.0, 769.0, 768.0, 767.0, 769.0, 770.0, 770.0, 770.0, 770.0, 770.0, 771.0, 772.0, 771.0, 772.0, 771.0, 768.0, 768.0, 769.0, 769.0, 769.0, 769.0, 769.0, 768.0, 768.0, 767.0, 767.0, 768.0, 768.0, 768.0, 769.0, 769.0, 769.0, 769.0, 769.0, 769.0, 768.0, 769.0, 770.0, 769.0, 768.0, 768.0, 767.0, 770.0, 768.0, 768.0, 768.0, 768.0, 769.0, 769.0, 768.0, 768.0, 768.0, 768.0, 768.0, 768.0, 768.0, 767.0, 767.0, 767.0, 766.0, 768.0, 768.0, 770.0, 767.0, 768.0, 770.0, 769.0, 768.0, 766.0, 767.0, 766.0, 767.0, 767.0, 768.0, 768.0, 768.0, 768.0, 769.0, 769.0, 769.0, 767.0, 768.0, 766.0, 766.0, 767.0, 768.0, 768.0, 769.0, 768.0, 769.0, 769.0, 769.0, 766.0, 765.0, 766.0, 766.0, 769.0, 769.0, 768.0, 768.0, 766.0, 767.0, 767.0, 767.0, 767.0, 767.0, 766.0, 768.0, 769.0, 768.0, 770.0, 768.0, 766.0, 766.0],
      "WindowWidth": [1677.0, 1670.0, 1672.0, 1671.0, 1668.0, 1667.0, 1662.0, 1663.0, 1668.0, 1671.0, 1667.0, 1673.0, 1665.0, 1660.0, 1666.0, 1669.0, 1671.0, 1668.0, 1665.0, 1667.0, 1666.0, 1670.0, 1673.0, 1670.0, 1672.0, 1671.0, 1671.0, 1671.0, 1669.0, 1667.0, 1665.0, 1670.0, 1671.0, 1672.0, 1669.0, 1671.0, 1673.0, 1672.0, 1672.0, 1670.0, 1671.0, 1669.0, 1666.0, 1669.0, 1673.0, 1672.0, 1671.0, 1674.0, 1676.0, 1673.0, 1671.0, 1669.0, 1667.0, 1664.0, 1668.0, 1674.0, 1673.0, 1672.0, 1672.0, 1673.0, 1676.0, 1678.0, 1675.0, 1679.0, 1674.0, 1665.0, 1667.0, 1670.0, 1669.0, 1669.0, 1668.0, 1668.0, 1666.0, 1665.0, 1664.0, 1664.0, 1666.0, 1667.0, 1667.0, 1669.0, 1670.0, 1669.0, 1668.0, 1668.0, 1669.0, 1667.0, 1668.0, 1671.0, 1669.0, 1667.0, 1667.0, 1664.0, 1672.0, 1667.0, 1666.0, 1666.0, 1665.0, 1670.0, 1669.0, 1667.0, 1666.0, 1665.0, 1667.0, 1667.0, 1665.0, 1665.0, 1664.0, 1662.0, 1665.0, 1661.0, 1665.0, 1666.0, 1674.0, 1664.0, 1667.0, 1672.0, 1667.0, 1667.0, 1660.0, 1662.0, 1661.0, 1662.0, 1663.0, 1665.0, 1666.0, 1666.0, 1665.0, 1668.0, 1669.0, 1666.0, 1663.0, 1664.0, 1660.0, 1660.0, 1662.0, 1664.0, 1665.0, 1669.0, 1665.0, 1669.0, 1670.0, 1668.0, 1660.0, 1658.0, 1658.0, 1660.0, 1667.0, 1668.0, 1665.0, 1665.0, 1661.0, 1662.0, 1662.0, 1661.0, 1663.0, 1662.0, 1659.0, 1665.0, 1668.0, 1666.0, 1670.0, 1666.0, 1659.0, 1658.0]
    },
    "slices": {}
  }
}