{
  "AcquisitionMatrixPE": 64,
  "AcquisitionNumber": 1,
  "AcquisitionTime": "14:44:13.660000",
  "BandwidthPerPixelPhaseEncode": 33.967,
  "BaseResolution": 64,
  "CoilCombinationMethod": "Sum of Squares",
  "CoilString": "C:HEA;HEP",
  "ConversionSoftware": "dcm2niix",
  "ConversionSoftwareVersion": "v1.0.20220720",
  "DerivedVendorReportedEchoSpacing": 0.000460005,
  "DeviceSerialNumber": "35193",
  "DwellTime": 3.1e-06,
  "EchoTime": 0.03,
  "EffectiveEchoSpacing": 0.000460005,
  "FlipAngle": 90,
  "HeudiconvVersion": "1.1.6",
  "ImageOrientationPatientDICOM": [1, 0, 0, 0, 1, 0],
  "ImageOrientationText": "Tra",
  "ImageType": [
    "ORIGINAL",
    "PRIMARY",
    "M",
    "ND",
    "MOSAIC"
],
  "ImagingFrequency": 123.254,
  "InPlanePhaseEncodingDirectionDICOM": "COL",
  "InstitutionAddress": "Xinjiekouwai Street No 19,Beijing,Haidian District,CN,100875",
  "InstitutionName": "Beijing Normal Universtiy/5777c4/",
  "InstitutionalDepartmentName": "Department",
  "MRAcquisitionType": "2D",
  "MagneticFieldStrength": 3,
  "Manufacturer": "Siemens",
  "ManufacturersModelName": "TrioTim",
  "MatrixCoilMode": "SENSE",
  "Modality": "MR",
  "NonlinearGradientCorrection": false,
  "PartialFourier": 1,
  "PatientPosition": "HFS",
  "PercentPhaseFOV": 100,
  "PercentSampling": 100,
  "PhaseEncodingDirection": "j-",
  "PhaseEncodingSteps": 64,
  "PhaseResolution": 1,
  "PixelBandwidth": 2520,
  "ProcedureStepDescription": "BNU_cst_2015^Guo.TaoMei",
  "ProtocolName": "ge_func_3x3x4_164",
  "PulseSequenceDetails": "%SiemensSeq%\\ep2d_bold",
  "ReceiveCoilName": "HeadMatrix",
  "ReconMatrixPE": 64,
  "RepetitionTime": 2,
  "SAR": 0.124181,
  "ScanOptions": "FS",
  "ScanningSequence": "EP",
  "SequenceName": "*epfid2d1_64",
  "SequenceVariant": "SK",
  "SeriesDescription": "ge_func_3x3x4_164",
  "SeriesNumber": 5,
  "ShimSetting": [-4506, -19437, -9832, 1062, -131, -548, 44, -59],
  "SliceThickness": 4,
  "SliceTiming": [0, 1.035, 0.0625, 1.095, 0.1225, 1.1575, 0.1825, 1.2175, 0.245, 1.2775, 0.305, 1.34, 0.365, 1.4, 0.4275, 1.46, 0.4875, 1.5225, 0.5475, 1.5825, 0.61, 1.6425, 0.67, 1.705, 0.73, 1.765, 0.7925, 1.825, 0.8525, 1.8875, 0.9125, 1.9475, 0.975],
  "SoftwareVersions": "syngo MR B17",
  "SpacingBetweenSlices": 4.6,
  "StationName": "MRC35193",
  "TaskName": "CognitiveControl",
  "TotalReadoutTime": 0.0289803,
  "TxRefAmp": 322.43,
  "dcmmeta_affine": [
    [-3.125, 0.0, 0.0, 100.0],
    [0.0, 3.125, 0.0, -89.45331573486328],
    [0.0, 0.0, 4.599999904632568, -70.22650909423828],
    [0.0, 0.0, 0.0, 1.0]
],
  "dcmmeta_reorient_transform": [
    [0.0, -1.0, 0.0, 63.0],
    [1.0, 0.0, 0.0, 0.0],
    [0.0, 0.0, 1.0, 0.0],
    [0.0, 0.0, 0.0, 1.0]
],
  "dcmmeta_shape": [64, 64, 33, 164],
  "dcmmeta_slice_dim": 2,
  "dcmmeta_version": 0.6,
  "global": {
    "const": {
      "AcquisitionMatrix": [64, 0, 0, 64],
      "AngioFlag": "N",
      "BitsAllocated": 16,
      "BitsStored": 12,
      "Columns": 384,
      "EchoNumbers": 1,
      "EchoTime": 30.0,
      "EchoTrainLength": 1,
      "FlipAngle": 90.0,
      "HighBit": 11,
      "ImageOrientationPatient": [1.0, 0.0, 0.0, 0.0, 1.0, 0.0],
      "ImagePositionPatient": [-600.0, -607.42168664932, -70.226509094238],
      "ImageType": [
        "ORIGINAL",
        "PRIMARY",
        "M",
        "ND",
        "MOSAIC"
],
      "ImagedNucleus": "1H",
      "ImagingFrequency": 123.253949,
      "InPlanePhaseEncodingDirection": "COL",
      "MRAcquisitionType": "2D",
      "MagneticFieldStrength": 3.0,
      "Manufacturer": "SIEMENS",
      "ManufacturerModelName": "TrioTim",
      "Modality": "MR",
      "NumberOfAverages": 1.0,
      "NumberOfPhaseEncodingSteps": 64,
      "PercentPhaseFieldOfView": 100.0,
      "PercentSampling": 100.0,
      "PerformedProcedureStepStartTime": "142244.265000",
      "PhotometricInterpretation": "MONOCHROME2",
      "PixelBandwidth": 2520.0,
      "PixelRepresentation": 0,
      "PixelSpacing": [3.125, 3.125],
      "ProtocolName": "ge_func_3x3x4_164",
      "RepetitionTime": 2000.0,
      "Rows": 384,
      "SAR": 0.12418121716694,
      "SamplesPerPixel": 1,
      "ScanOptions": "FS",
      "ScanningSequence": "EP",
      "SequenceName": "*epfid2d1_64",
      "SequenceVariant": "SK",
      "SeriesDescription": "ge_func_3x3x4_164",
      "SeriesNumber": 5,
      "SeriesTime": "144507.906000",
      "SliceLocation": -70.226509094238,
      "SliceThickness": 4.0,
      "SmallestImagePixelValue": 0,
      "SoftwareVersions": "syngo MR B17",
      "SpacingBetweenSlices": 4.6000001430511,
      "SpecificCharacterSet": "ISO_IR 100",
      "StudyID": "1",
      "StudyTime": "142244.218000",
      "TransmitCoilName": "Body",
      "VariableFlipAngleFlag": "N",
      "WindowCenterWidthExplanation": "Algo1",
      "dBdt": 0.0},
    "slices": {}
  },
  "time": {
    "samples": {
      "AcquisitionNumber": [1, 2, 3, 4, 5, 6, 7, 8, 9, 10, 11, 12, 13, 14, 15, 16, 17, 18, 19, 20, 21, 22, 23, 24, 25, 26, 27, 28, 29, 30, 31, 32, 33, 34, 35, 36, 37, 38, 39, 40, 41, 42, 43, 44, 45, 46, 47, 48, 49, 50, 51, 52, 53, 54, 55, 56, 57, 58, 59, 60, 61, 62, 63, 64, 65, 66, 67, 68, 69, 70, 71, 72, 73, 74, 75, 76, 77, 78, 79, 80, 81, 82, 83, 84, 85, 86, 87, 88, 89, 90, 91, 92, 93, 94, 95, 96, 97, 98, 99, 100, 101, 102, 103, 104, 105, 106, 107, 108, 109, 110, 111, 112, 113, 114, 115, 116, 117, 118, 119, 120, 121, 122, 123, 124, 125, 126, 127, 128, 129, 130, 131, 132, 133, 134, 135, 136, 137, 138, 139, 140, 141, 142, 143, 144, 145, 146, 147, 148, 149, 150, 151, 152, 153, 154, 155, 156, 157, 158, 159, 160, 161, 162, 163, 164],
      "AcquisitionTime": ["144413.660000", "144415.667500", "144417.677500", "144419.685000", "144421.692500", "144423.700000", "144425.707500", "144427.717500", "144429.725000", "144431.732500", "144433.740000", "144435.750000", "144437.757500", "144439.765000", "144441.772500", "144443.780000", "144445.790000", "144447.797500", "144449.805000", "144451.812500", "144453.820000", "144455.830000", "144457.837500", "144459.845000", "144501.852500", "144503.862500", "144505.870000", "144507.877500", "144509.885000", "144511.892500", "144513.902500", "144515.910000", "144517.917500", "144519.925000", "144521.932500", "144523.942500", "144525.950000", "144527.957500", "144529.965000", "144531.975000", "144533.982500", "144535.990000", "144537.997500", "144540.005000", "144542.015000", "144544.022500", "144546.030000", "144548.037500", "144550.045000", "144552.055000", "144554.062500", "144556.070000", "144558.077500", "144600.085000", "144602.095000", "144604.102500", "144606.110000", "144608.117500", "144610.127500", "144612.135000", "144614.142500", "144616.150000", "144618.157500", "144620.167500", "144622.175000", "144624.182500", "144626.190000", "144628.197500", "144630.207500", "144632.215000", "144634.222500", "144636.230000", "144638.240000", "144640.247500", "144642.255000", "144644.262500", "144646.270000", "144648.280000", "144650.287500", "144652.295000", "144654.302500", "144656.310000", "144658.320000", "144700.327500", "144702.335000", "144704.342500", "144706.352500", "144708.360000", "144710.367500", "144712.375000", "144714.382500", "144716.392500", "144718.400000", "144720.407500", "144722.415000", "144724.422500", "144726.432500", "144728.440000", "144730.447500", "144732.455000", "144734.462500", "144736.472500", "144738.480000", "144740.487500", "144742.495000", "144744.505000", "144746.512500", "144748.520000", "144750.527500", "144752.535000", "144754.545000", "144756.552500", "144758.560000", "144800.567500", "144802.575000", "144804.585000", "144806.592500", "144808.600000", "144810.607500", "144812.617500", "144814.625000", "144816.632500", "144818.640000", "144820.647500", "144822.657500", "144824.665000", "144826.672500", "144828.680000", "144830.687500", "144832.697500", "144834.705000", "144836.712500", "144838.720000", "144840.730000", "144842.737500", "144844.745000", "144846.752500", "144848.760000", "144850.770000", "144852.777500", "144854.785000", "144856.792500", "144858.800000", "144900.810000", "144902.817500", "144904.825000", "144906.832500", "144908.840000", "144910.850000", "144912.857500", "144914.865000", "144916.872500", "144918.882500", "144920.890000", "144922.897500", "144924.905000", "144926.912500", "144928.922500", "144930.930000", "144932.937500", "144934.945000", "144936.952500", "144938.962500", "144940.970000"],
      "ContentTime": ["144507.906000", "144507.921000", "144507.921000", "144507.921000", "144507.921000", "144507.921000", "144507.921000", "144507.921000", "144507.937000", "144507.937000", "144507.937000", "144507.937000", "144507.937000", "144507.937000", "144507.937000", "144507.953000", "144507.953000", "144507.953000", "144507.953000", "144507.953000", "144507.953000", "144507.953000", "144507.953000", "144507.968000", "144507.968000", "144507.968000", "144547.890000", "144547.906000", "144547.906000", "144547.906000", "144547.906000", "144547.906000", "144547.906000", "144547.906000", "144547.906000", "144547.921000", "144547.921000", "144547.921000", "144547.921000", "144547.921000", "144547.921000", "144547.921000", "144547.921000", "144547.921000", "144547.937000", "144547.937000", "144627.890000", "144627.906000", "144627.906000", "144627.906000", "144627.906000", "144627.906000", "144627.921000", "144627.921000", "144627.921000", "144627.921000", "144627.921000", "144627.937000", "144627.937000", "144627.937000", "144627.937000", "144627.937000", "144627.937000", "144627.937000", "144627.937000", "144627.937000", "144707.890000", "144707.906000", "144707.906000", "144707.906000", "144707.906000", "144707.921000", "144707.921000", "144707.921000", "144707.921000", "144707.921000", "144707.921000", "144707.921000", "144707.921000", "144707.937000", "144707.937000", "144707.937000", "144707.953000", "144707.953000", "144707.953000", "144707.953000", "144747.890000", "144747.906000", "144747.906000", "144747.906000", "144747.921000", "144747.921000", "144747.921000", "144747.921000", "144747.921000", "144747.921000", "144747.937000", "144747.937000", "144747.937000", "144747.937000", "144747.937000", "144747.937000", "144747.937000", "144747.953000", "144747.953000", "144747.953000", "144827.890000", "144827.906000", "144827.906000", "144827.906000", "144827.906000", "144827.906000", "144827.906000", "144827.906000", "144827.906000", "144827.921000", "144827.921000", "144827.921000", "144827.921000", "144827.921000", "144827.921000", "144827.921000", "144827.921000", "144827.937000", "144827.937000", "144827.937000", "144907.890000", "144907.906000", "144907.906000", "144907.906000", "144907.906000", "144907.906000", "144907.906000", "144907.921000", "144907.921000", "144907.921000", "144907.921000", "144907.921000", "144907.921000", "144907.921000", "144907.921000", "144907.937000", "144907.937000", "144907.937000", "144907.937000", "144907.937000", "144942.796000", "144942.796000", "144942.796000", "144942.796000", "144942.796000", "144942.812000", "144942.812000", "144942.812000", "144942.812000", "144942.812000", "144942.812000", "144942.812000", "144942.812000", "144942.828000", "144942.828000", "144942.828000", "144942.828000", "144942.828000"],
      "InstanceCreationTime": ["144507.906000", "144507.921000", "144507.921000", "144507.921000", "144507.921000", "144507.921000", "144507.921000", "144507.921000", "144507.937000", "144507.937000", "144507.937000", "144507.937000", "144507.937000", "144507.937000", "144507.937000", "144507.953000", "144507.953000", "144507.953000", "144507.953000", "144507.953000", "144507.953000", "144507.953000", "144507.953000", "144507.968000", "144507.968000", "144507.968000", "144547.890000", "144547.906000", "144547.906000", "144547.906000", "144547.906000", "144547.906000", "144547.906000", "144547.906000", "144547.906000", "144547.921000", "144547.921000", "144547.921000", "144547.921000", "144547.921000", "144547.921000", "144547.921000", "144547.921000", "144547.921000", "144547.937000", "144547.937000", "144627.890000", "144627.906000", "144627.906000", "144627.906000", "144627.906000", "144627.906000", "144627.921000", "144627.921000", "144627.921000", "144627.921000", "144627.921000", "144627.937000", "144627.937000", "144627.937000", "144627.937000", "144627.937000", "144627.937000", "144627.937000", "144627.937000", "144627.937000", "144707.890000", "144707.906000", "144707.906000", "144707.906000", "144707.906000", "144707.921000", "144707.921000", "144707.921000", "144707.921000", "144707.921000", "144707.921000", "144707.921000", "144707.921000", "144707.937000", "144707.937000", "144707.937000", "144707.953000", "144707.953000", "144707.953000", "144707.953000", "144747.890000", "144747.906000", "144747.906000", "144747.906000", "144747.921000", "144747.921000", "144747.921000", "144747.921000", "144747.921000", "144747.921000", "144747.937000", "144747.937000", "144747.937000", "144747.937000", "144747.937000", "144747.937000", "144747.937000", "144747.953000", "144747.953000", "144747.953000", "144827.890000", "144827.906000", "144827.906000", "144827.906000", "144827.906000", "144827.906000", "144827.906000", "144827.906000", "144827.906000", "144827.921000", "144827.921000", "144827.921000", "144827.921000", "144827.921000", "144827.921000", "144827.921000", "144827.921000", "144827.937000", "144827.937000", "144827.937000", "144907.890000", "144907.906000", "144907.906000", "144907.906000", "144907.906000", "144907.906000", "144907.906000", "144907.921000", "144907.921000", "144907.921000", "144907.921000", "144907.921000", "144907.921000", "144907.921000", "144907.921000", "144907.937000", "144907.937000", "144907.937000", "144907.937000", "144907.937000", "144942.796000", "144942.796000", "144942.796000", "144942.796000", "144942.796000", "144942.812000", "144942.812000", "144942.812000", "144942.812000", "144942.812000", "144942.812000", "144942.812000", "144942.812000", "144942.828000", "144942.828000", "144942.828000", "144942.828000", "144942.828000"],
      "InstanceNumber": [1, 2, 3, 4, 5, 6, 7, 8, 9, 10, 11, 12, 13, 14, 15, 16, 17, 18, 19, 20, 21, 22, 23, 24, 25, 26, 27, 28, 29, 30, 31, 32, 33, 34, 35, 36, 37, 38, 39, 40, 41, 42, 43, 44, 45, 46, 47, 48, 49, 50, 51, 52, 53, 54, 55, 56, 57, 58, 59, 60, 61, 62, 63, 64, 65, 66, 67, 68, 69, 70, 71, 72, 73, 74, 75, 76, 77, 78, 79, 80, 81, 82, 83, 84, 85, 86, 87, 88, 89, 90, 91, 92, 93, 94, 95, 96, 97, 98, 99, 100, 101, 102, 103, 104, 105, 106, 107, 108, 109, 110, 111, 112, 113, 114, 115, 116, 117, 118, 119, 120, 121, 122, 123, 124, 125, 126, 127, 128, 129, 130, 131, 132, 133, 134, 135, 136, 137, 138, 139, 140, 141, 142, 143, 144, 145, 146, 147, 148, 149, 150, 151, 152, 153, 154, 155, 156, 157, 158, 159, 160, 161, 162, 163, 164],
      "LargestImagePixelValue": [1805, 1748, 1718, 1731, 1708, 1715, 1712, 1717, 1726, 1709, 1720, 1715, 1705, 1698, 1751, 1705, 1711, 1709, 1731, 1719, 1738, 1731, 1723, 1726, 1723, 1727, 1715, 1733, 1708, 1714, 1720, 1717, 1733, 1719, 1720, 1728, 1726, 1736, 1721, 1735, 1710, 1728, 1712, 1733, 1734, 1726, 1736, 1721, 1738, 1728, 1719, 1731, 1709, 1735, 1731, 1742, 1734, 1723, 1725, 1724, 1720, 1716, 1718, 1728, 1730, 1723, 1723, 1720, 1747, 1715, 1716, 1721, 1743, 1790, 1688, 1692, 1711, 1696, 1743, 1723, 1714, 1725, 1756, 1721, 1715, 1716, 1723, 1739, 1731, 1722, 1714, 1708, 1709, 1715, 1728, 1718, 1732, 1716, 1732, 1723, 1727, 1724, 1748, 1729, 1731, 1724, 1719, 1721, 1724, 1721, 1730, 1721, 1733, 1728, 1720, 1732, 1734, 1729, 1739, 1742, 1722, 1725, 1721, 1744, 1722, 1719, 1730, 1739, 1740, 1728, 1723, 1713, 1734, 1752, 1704, 1711, 1718, 1709, 1718, 1735, 1723, 1725, 1726, 1727, 1730, 1733, 1741, 1733, 1739, 1734, 1722, 1726, 1724, 1708, 1707, 1696, 1709, 1701, 1714, 1716, 1715, 1713, 1741, 1709],
      "WindowCenter": [720.0, 718.0, 716.0, 716.0, 716.0, 716.0, 716.0, 716.0, 716.0, 716.0, 717.0, 717.0, 716.0, 716.0, 718.0, 716.0, 716.0, 716.0, 717.0, 716.0, 715.0, 715.0, 716.0, 716.0, 715.0, 715.0, 717.0, 717.0, 717.0, 716.0, 716.0, 717.0, 717.0, 716.0, 716.0, 717.0, 717.0, 717.0, 716.0, 716.0, 716.0, 716.0, 716.0, 716.0, 716.0, 717.0, 718.0, 717.0, 717.0, 716.0, 716.0, 717.0, 717.0, 717.0, 716.0, 717.0, 717.0, 717.0, 717.0, 716.0, 717.0, 718.0, 717.0, 716.0, 716.0, 717.0, 718.0, 718.0, 717.0, 716.0, 716.0, 717.0, 716.0, 718.0, 714.0, 715.0, 715.0, 714.0, 715.0, 716.0, 716.0, 715.0, 716.0, 716.0, 716.0, 716.0, 716.0, 716.0, 717.0, 718.0, 717.0, 716.0, 715.0, 717.0, 719.0, 718.0, 717.0, 715.0, 716.0, 716.0, 718.0, 717.0, 717.0, 717.0, 717.0, 717.0, 717.0, 718.0, 717.0, 717.0, 717.0, 718.0, 718.0, 718.0, 717.0, 717.0, 716.0, 717.0, 718.0, 719.0, 717.0, 716.0, 716.0, 716.0, 717.0, 717.0, 717.0, 717.0, 717.0, 717.0, 717.0, 716.0, 716.0, 717.0, 718.0, 717.0, 717.0, 716.0, 715.0, 717.0, 718.0, 716.0, 715.0, 715.0, 716.0, 717.0, 717.0, 716.0, 717.0, 718.0, 717.0, 717.0, 718.0, 717.0, 716.0, 716.0, 717.0, 716.0, 717.0, 716.0, 716.0, 716.0, 717.0, 718.0],
      "WindowWidth": [1567.0, 1560.0, 1555.0, 1554.0, 1554.0, 1556.0, 1556.0, 1556.0, 1553.0, 1555.0, 1558.0, 1557.0, 1554.0, 1556.0, 1560.0, 1554.0, 1554.0, 1554.0, 1556.0, 1553.0, 1551.0, 1553.0, 1555.0, 1554.0, 1553.0, 1553.0, 1557.0, 1558.0, 1556.0, 1554.0, 1554.0, 1556.0, 1557.0, 1554.0, 1556.0, 1558.0, 1557.0, 1556.0, 1554.0, 1555.0, 1554.0, 1556.0, 1553.0, 1555.0, 1556.0, 1558.0, 1560.0, 1558.0, 1557.0, 1555.0, 1556.0, 1559.0, 1558.0, 1557.0, 1556.0, 1557.0, 1558.0, 1557.0, 1557.0, 1555.0, 1558.0, 1559.0, 1559.0, 1555.0, 1554.0, 1556.0, 1561.0, 1560.0, 1557.0, 1554.0, 1554.0, 1556.0, 1555.0, 1560.0, 1549.0, 1550.0, 1550.0, 1550.0, 1553.0, 1553.0, 1554.0, 1551.0, 1553.0, 1555.0, 1556.0, 1554.0, 1554.0, 1555.0, 1557.0, 1559.0, 1557.0, 1555.0, 1552.0, 1557.0, 1561.0, 1561.0, 1557.0, 1552.0, 1553.0, 1556.0, 1560.0, 1558.0, 1556.0, 1557.0, 1557.0, 1557.0, 1558.0, 1559.0, 1558.0, 1557.0, 1558.0, 1560.0, 1561.0, 1559.0, 1556.0, 1556.0, 1556.0, 1557.0, 1561.0, 1563.0, 1557.0, 1555.0, 1554.0, 1555.0, 1556.0, 1556.0, 1557.0, 1557.0, 1557.0, 1557.0, 1556.0, 1555.0, 1553.0, 1557.0, 1559.0, 1558.0, 1556.0, 1554.0, 1553.0, 1556.0, 1559.0, 1554.0, 1553.0, 1551.0, 1554.0, 1557.0, 1557.0, 1555.0, 1556.0, 1559.0, 1557.0, 1558.0, 1560.0, 1556.0, 1555.0, 1555.0, 1556.0, 1554.0, 1557.0, 1555.0, 1555.0, 1555.0, 1558.0, 1559.0]
    },
    "slices": {}
  }
}