{
  "AcquisitionMatrixPE": 64,
  "AcquisitionNumber": 1,
  "AcquisitionTime": "14:24:57.557500",
  "BandwidthPerPixelPhaseEncode": 33.967,
  "BaseResolution": 64,
  "CoilCombinationMethod": "Sum of Squares",
  "CoilString": "C:HEA;HEP",
  "ConversionSoftware": "dcm2niix",
  "ConversionSoftwareVersion": "v1.0.20220720",
  "DerivedVendorReportedEchoSpacing": 0.000460005,
  "DeviceSerialNumber": "35193",
  "DwellTime": 3.1e-06,
  "EchoTime": 0.03,
  "EffectiveEchoSpacing": 0.000460005,
  "FlipAngle": 90,
  "HeudiconvVersion": "1.1.6",
  "ImageOrientationPatientDICOM": [1, 0, 0, 0, 1, 0],
  "ImageOrientationText": "Tra",
  "ImageType": [
    "ORIGINAL",
    "PRIMARY",
    "M",
    "ND",
    "MOSAIC"
],
  "ImagingFrequency": 123.254,
  "InPlanePhaseEncodingDirectionDICOM": "COL",
  "InstitutionAddress": "Xinjiekouwai Street No 19,Beijing,Haidian District,CN,100875",
  "InstitutionName": "Beijing Normal Universtiy/5777c4/",
  "InstitutionalDepartmentName": "Department",
  "MRAcquisitionType": "2D",
  "MagneticFieldStrength": 3,
  "Manufacturer": "Siemens",
  "ManufacturersModelName": "TrioTim",
  "MatrixCoilMode": "SENSE",
  "Modality": "MR",
  "NonlinearGradientCorrection": false,
  "PartialFourier": 1,
  "PatientPosition": "HFS",
  "PercentPhaseFOV": 100,
  "PercentSampling": 100,
  "PhaseEncodingDirection": "j-",
  "PhaseEncodingSteps": 64,
  "PhaseResolution": 1,
  "PixelBandwidth": 2520,
  "ProcedureStepDescription": "BNU_cst_2015^Guo.TaoMei",
  "ProtocolName": "ge_func_3x3x4_164",
  "PulseSequenceDetails": "%SiemensSeq%\\ep2d_bold",
  "ReceiveCoilName": "HeadMatrix",
  "ReconMatrixPE": 64,
  "RepetitionTime": 2,
  "SAR": 0.124181,
  "ScanOptions": "FS",
  "ScanningSequence": "EP",
  "SequenceName": "*epfid2d1_64",
  "SequenceVariant": "SK",
  "SeriesDescription": "ge_func_3x3x4_164",
  "SeriesNumber": 2,
  "ShimSetting": [-4506, -19437, -9832, 1062, -131, -548, 44, -59],
  "SliceThickness": 4,
  "SliceTiming": [0, 1.0325, 0.06, 1.095, 0.12, 1.155, 0.1825, 1.215, 0.2425, 1.2775, 0.3025, 1.3375, 0.365, 1.3975, 0.425, 1.46, 0.485, 1.52, 0.5475, 1.58, 0.6075, 1.6425, 0.6675, 1.7025, 0.73, 1.7625, 0.79, 1.825, 0.85, 1.885, 0.9125, 1.945, 0.9725],
  "SoftwareVersions": "syngo MR B17",
  "SpacingBetweenSlices": 4.6,
  "StationName": "MRC35193",
  "TaskName": "LanguageControl",
  "TotalReadoutTime": 0.0289803,
  "TxRefAmp": 322.43,
  "dcmmeta_affine": [
    [-3.125, 0.0, 0.0, 100.0],
    [0.0, 3.125, 0.0, -89.45331573486328],
    [0.0, 0.0, 4.599999904632568, -70.22650909423828],
    [0.0, 0.0, 0.0, 1.0]
],
  "dcmmeta_reorient_transform": [
    [0.0, -1.0, 0.0, 63.0],
    [1.0, 0.0, 0.0, 0.0],
    [0.0, 0.0, 1.0, 0.0],
    [0.0, 0.0, 0.0, 1.0]
],
  "dcmmeta_shape": [64, 64, 33, 164],
  "dcmmeta_slice_dim": 2,
  "dcmmeta_version": 0.6,
  "global": {
    "const": {
      "AcquisitionMatrix": [64, 0, 0, 64],
      "AngioFlag": "N",
      "BitsAllocated": 16,
      "BitsStored": 12,
      "Columns": 384,
      "EchoNumbers": 1,
      "EchoTime": 30.0,
      "EchoTrainLength": 1,
      "FlipAngle": 90.0,
      "HighBit": 11,
      "ImageOrientationPatient": [1.0, 0.0, 0.0, 0.0, 1.0, 0.0],
      "ImagePositionPatient": [-600.0, -607.42168664932, -70.226509094238],
      "ImageType": [
        "ORIGINAL",
        "PRIMARY",
        "M",
        "ND",
        "MOSAIC"
],
      "ImagedNucleus": "1H",
      "ImagingFrequency": 123.253945,
      "InPlanePhaseEncodingDirection": "COL",
      "MRAcquisitionType": "2D",
      "MagneticFieldStrength": 3.0,
      "Manufacturer": "SIEMENS",
      "ManufacturerModelName": "TrioTim",
      "Modality": "MR",
      "NumberOfAverages": 1.0,
      "NumberOfPhaseEncodingSteps": 64,
      "PercentPhaseFieldOfView": 100.0,
      "PercentSampling": 100.0,
      "PerformedProcedureStepStartTime": "142244.265000",
      "PhotometricInterpretation": "MONOCHROME2",
      "PixelBandwidth": 2520.0,
      "PixelRepresentation": 0,
      "PixelSpacing": [3.125, 3.125],
      "ProtocolName": "ge_func_3x3x4_164",
      "RepetitionTime": 2000.0,
      "Rows": 384,
      "SAR": 0.12418121716694,
      "SamplesPerPixel": 1,
      "ScanOptions": "FS",
      "ScanningSequence": "EP",
      "SequenceName": "*epfid2d1_64",
      "SequenceVariant": "SK",
      "SeriesDescription": "ge_func_3x3x4_164",
      "SeriesNumber": 2,
      "SeriesTime": "142547.906000",
      "SliceLocation": -70.226509094238,
      "SliceThickness": 4.0,
      "SmallestImagePixelValue": 0,
      "SoftwareVersions": "syngo MR B17",
      "SpacingBetweenSlices": 4.6000001430511,
      "SpecificCharacterSet": "ISO_IR 100",
      "StudyID": "1",
      "StudyTime": "142244.218000",
      "TransmitCoilName": "Body",
      "VariableFlipAngleFlag": "N",
      "WindowCenterWidthExplanation": "Algo1",
      "dBdt": 0.0},
    "slices": {}
  },
  "time": {
    "samples": {
      "AcquisitionNumber": [1, 2, 3, 4, 5, 6, 7, 8, 9, 10, 11, 12, 13, 14, 15, 16, 17, 18, 19, 20, 21, 22, 23, 24, 25, 26, 27, 28, 29, 30, 31, 32, 33, 34, 35, 36, 37, 38, 39, 40, 41, 42, 43, 44, 45, 46, 47, 48, 49, 50, 51, 52, 53, 54, 55, 56, 57, 58, 59, 60, 61, 62, 63, 64, 65, 66, 67, 68, 69, 70, 71, 72, 73, 74, 75, 76, 77, 78, 79, 80, 81, 82, 83, 84, 85, 86, 87, 88, 89, 90, 91, 92, 93, 94, 95, 96, 97, 98, 99, 100, 101, 102, 103, 104, 105, 106, 107, 108, 109, 110, 111, 112, 113, 114, 115, 116, 117, 118, 119, 120, 121, 122, 123, 124, 125, 126, 127, 128, 129, 130, 131, 132, 133, 134, 135, 136, 137, 138, 139, 140, 141, 142, 143, 144, 145, 146, 147, 148, 149, 150, 151, 152, 153, 154, 155, 156, 157, 158, 159, 160, 161, 162, 163, 164],
      "AcquisitionTime": ["142457.557500", "142459.565000", "142501.572500", "142503.580000", "142505.587500", "142507.597500", "142509.605000", "142511.612500", "142513.620000", "142515.627500", "142517.637500", "142519.645000", "142521.652500", "142523.660000", "142525.667500", "142527.677500", "142529.685000", "142531.692500", "142533.700000", "142535.710000", "142537.717500", "142539.725000", "142541.732500", "142543.740000", "142545.750000", "142547.757500", "142549.765000", "142551.772500", "142553.780000", "142555.790000", "142557.797500", "142559.805000", "142601.812500", "142603.822500", "142605.830000", "142607.837500", "142609.845000", "142611.852500", "142613.862500", "142615.870000", "142617.877500", "142619.885000", "142621.892500", "142623.902500", "142625.910000", "142627.917500", "142629.925000", "142631.935000", "142633.942500", "142635.950000", "142637.957500", "142639.965000", "142641.975000", "142643.982500", "142645.990000", "142647.997500", "142650.005000", "142652.015000", "142654.022500", "142656.030000", "142658.037500", "142700.047500", "142702.055000", "142704.062500", "142706.070000", "142708.077500", "142710.087500", "142712.095000", "142714.102500", "142716.110000", "142718.117500", "142720.127500", "142722.135000", "142724.142500", "142726.150000", "142728.157500", "142730.167500", "142732.175000", "142734.182500", "142736.190000", "142738.200000", "142740.207500", "142742.215000", "142744.222500", "142746.230000", "142748.240000", "142750.247500", "142752.255000", "142754.262500", "142756.270000", "142758.280000", "142800.287500", "142802.295000", "142804.302500", "142806.312500", "142808.320000", "142810.327500", "142812.335000", "142814.342500", "142816.352500", "142818.360000", "142820.367500", "142822.375000", "142824.382500", "142826.392500", "142828.400000", "142830.407500", "142832.415000", "142834.425000", "142836.432500", "142838.440000", "142840.447500", "142842.455000", "142844.465000", "142846.472500", "142848.480000", "142850.487500", "142852.495000", "142854.505000", "142856.512500", "142858.520000", "142900.527500", "142902.535000", "142904.545000", "142906.552500", "142908.560000", "142910.567500", "142912.577500", "142914.585000", "142916.592500", "142918.600000", "142920.607500", "142922.617500", "142924.625000", "142926.632500", "142928.640000", "142930.647500", "142932.657500", "142934.665000", "142936.672500", "142938.680000", "142940.690000", "142942.697500", "142944.705000", "142946.712500", "142948.720000", "142950.730000", "142952.737500", "142954.745000", "142956.752500", "142958.760000", "143000.770000", "143002.777500", "143004.785000", "143006.792500", "143008.802500", "143010.810000", "143012.817500", "143014.825000", "143016.832500", "143018.842500", "143020.850000", "143022.857500", "143024.865000"],
      "ContentTime": ["142547.906000", "142547.906000", "142547.906000", "142547.906000", "142547.906000", "142547.921000", "142547.921000", "142547.921000", "142547.937000", "142547.937000", "142547.937000", "142547.937000", "142547.937000", "142547.937000", "142547.953000", "142547.953000", "142547.953000", "142547.953000", "142547.953000", "142547.953000", "142547.968000", "142547.968000", "142547.968000", "142547.968000", "142627.890000", "142627.906000", "142627.906000", "142627.906000", "142627.906000", "142627.906000", "142627.906000", "142627.906000", "142627.906000", "142627.921000", "142627.921000", "142627.921000", "142627.921000", "142627.921000", "142627.921000", "142627.921000", "142627.921000", "142627.937000", "142627.937000", "142627.937000", "142707.890000", "142707.906000", "142707.906000", "142707.906000", "142707.906000", "142707.906000", "142707.906000", "142707.906000", "142707.921000", "142707.921000", "142707.921000", "142707.921000", "142707.921000", "142707.921000", "142707.937000", "142707.937000", "142707.937000", "142707.937000", "142707.937000", "142707.937000", "142747.890000", "142747.906000", "142747.906000", "142747.906000", "142747.906000", "142747.921000", "142747.921000", "142747.921000", "142747.921000", "142747.921000", "142747.921000", "142747.921000", "142747.937000", "142747.937000", "142747.937000", "142747.937000", "142747.937000", "142747.937000", "142747.937000", "142747.937000", "142827.890000", "142827.906000", "142827.906000", "142827.906000", "142827.921000", "142827.921000", "142827.921000", "142827.921000", "142827.921000", "142827.921000", "142827.921000", "142827.937000", "142827.937000", "142827.937000", "142827.937000", "142827.937000", "142827.953000", "142827.953000", "142827.953000", "142827.953000", "142907.890000", "142907.906000", "142907.906000", "142907.906000", "142907.906000", "142907.921000", "142907.921000", "142907.921000", "142907.921000", "142907.921000", "142907.921000", "142907.921000", "142907.937000", "142907.937000", "142907.937000", "142907.937000", "142907.937000", "142907.937000", "142907.953000", "142907.953000", "142947.890000", "142947.906000", "142947.906000", "142947.906000", "142947.906000", "142947.921000", "142947.921000", "142947.921000", "142947.921000", "142947.921000", "142947.921000", "142947.937000", "142947.937000", "142947.937000", "142947.937000", "142947.937000", "142947.937000", "142947.937000", "142947.937000", "142947.953000", "143026.296000", "143026.296000", "143026.296000", "143026.312000", "143026.312000", "143026.312000", "143026.312000", "143026.312000", "143026.312000", "143026.312000", "143026.312000", "143026.328000", "143026.328000", "143026.328000", "143026.328000", "143026.328000", "143026.328000", "143026.328000", "143026.328000", "143026.343000"],
      "InstanceCreationTime": ["142547.906000", "142547.906000", "142547.906000", "142547.906000", "142547.906000", "142547.921000", "142547.921000", "142547.921000", "142547.937000", "142547.937000", "142547.937000", "142547.937000", "142547.937000", "142547.937000", "142547.953000", "142547.953000", "142547.953000", "142547.953000", "142547.953000", "142547.953000", "142547.968000", "142547.968000", "142547.968000", "142547.968000", "142627.890000", "142627.906000", "142627.906000", "142627.906000", "142627.906000", "142627.906000", "142627.906000", "142627.906000", "142627.906000", "142627.921000", "142627.921000", "142627.921000", "142627.921000", "142627.921000", "142627.921000", "142627.921000", "142627.921000", "142627.937000", "142627.937000", "142627.937000", "142707.890000", "142707.906000", "142707.906000", "142707.906000", "142707.906000", "142707.906000", "142707.906000", "142707.906000", "142707.921000", "142707.921000", "142707.921000", "142707.921000", "142707.921000", "142707.921000", "142707.937000", "142707.937000", "142707.937000", "142707.937000", "142707.937000", "142707.937000", "142747.890000", "142747.906000", "142747.906000", "142747.906000", "142747.906000", "142747.921000", "142747.921000", "142747.921000", "142747.921000", "142747.921000", "142747.921000", "142747.921000", "142747.937000", "142747.937000", "142747.937000", "142747.937000", "142747.937000", "142747.937000", "142747.937000", "142747.937000", "142827.890000", "142827.906000", "142827.906000", "142827.906000", "142827.921000", "142827.921000", "142827.921000", "142827.921000", "142827.921000", "142827.921000", "142827.921000", "142827.937000", "142827.937000", "142827.937000", "142827.937000", "142827.937000", "142827.953000", "142827.953000", "142827.953000", "142827.953000", "142907.890000", "142907.906000", "142907.906000", "142907.906000", "142907.906000", "142907.921000", "142907.921000", "142907.921000", "142907.921000", "142907.921000", "142907.921000", "142907.921000", "142907.937000", "142907.937000", "142907.937000", "142907.937000", "142907.937000", "142907.937000", "142907.953000", "142907.953000", "142947.890000", "142947.906000", "142947.906000", "142947.906000", "142947.906000", "142947.921000", "142947.921000", "142947.921000", "142947.921000", "142947.921000", "142947.921000", "142947.937000", "142947.937000", "142947.937000", "142947.937000", "142947.937000", "142947.937000", "142947.937000", "142947.937000", "142947.953000", "143026.296000", "143026.296000", "143026.296000", "143026.312000", "143026.312000", "143026.312000", "143026.312000", "143026.312000", "143026.312000", "143026.312000", "143026.312000", "143026.328000", "143026.328000", "143026.328000", "143026.328000", "143026.328000", "143026.328000", "143026.328000", "143026.328000", "143026.343000"],
      "InstanceNumber": [1, 2, 3, 4, 5, 6, 7, 8, 9, 10, 11, 12, 13, 14, 15, 16, 17, 18, 19, 20, 21, 22, 23, 24, 25, 26, 27, 28, 29, 30, 31, 32, 33, 34, 35, 36, 37, 38, 39, 40, 41, 42, 43, 44, 45, 46, 47, 48, 49, 50, 51, 52, 53, 54, 55, 56, 57, 58, 59, 60, 61, 62, 63, 64, 65, 66, 67, 68, 69, 70, 71, 72, 73, 74, 75, 76, 77, 78, 79, 80, 81, 82, 83, 84, 85, 86, 87, 88, 89, 90, 91, 92, 93, 94, 95, 96, 97, 98, 99, 100, 101, 102, 103, 104, 105, 106, 107, 108, 109, 110, 111, 112, 113, 114, 115, 116, 117, 118, 119, 120, 121, 122, 123, 124, 125, 126, 127, 128, 129, 130, 131, 132, 133, 134, 135, 136, 137, 138, 139, 140, 141, 142, 143, 144, 145, 146, 147, 148, 149, 150, 151, 152, 153, 154, 155, 156, 157, 158, 159, 160, 161, 162, 163, 164],
      "LargestImagePixelValue": [1713, 1669, 1662, 1655, 1680, 1639, 1644, 1662, 1667, 1638, 1643, 1669, 1648, 1655, 1652, 1649, 1638, 1633, 1648, 1667, 1663, 1654, 1666, 1656, 1644, 1648, 1656, 1653, 1662, 1661, 1666, 1651, 1665, 1677, 1643, 1674, 1648, 1672, 1679, 1656, 1680, 1641, 1667, 1668, 1665, 1682, 1675, 1684, 1660, 1659, 1653, 1674, 1665, 1687, 1669, 1670, 1668, 1652, 1660, 1685, 1663, 1669, 1660, 1672, 1660, 1656, 1658, 1671, 1685, 1665, 1670, 1662, 1654, 1654, 1652, 1657, 1669, 1662, 1662, 1646, 1663, 1632, 1660, 1658, 1683, 1664, 1653, 1671, 1658, 1667, 1681, 1691, 1668, 1666, 1676, 1669, 1660, 1679, 1661, 1692, 1669, 1676, 1659, 1678, 1665, 1667, 1664, 1670, 1666, 1658, 1667, 1691, 1659, 1687, 1656, 1673, 1668, 1668, 1668, 1674, 1674, 1693, 1662, 1673, 1656, 1661, 1664, 1664, 1680, 1656, 1666, 1663, 1670, 1649, 1664, 1653, 1653, 1660, 1651, 1680, 1662, 1659, 1665, 1668, 1668, 1651, 1657, 1694, 1666, 1670, 1667, 1679, 1666, 1668, 1695, 1678, 1674, 1669, 1670, 1669, 1691, 1660, 1660, 1670],
      "WindowCenter": [717.0, 714.0, 714.0, 713.0, 713.0, 712.0, 711.0, 710.0, 711.0, 711.0, 712.0, 712.0, 711.0, 712.0, 712.0, 711.0, 711.0, 712.0, 712.0, 713.0, 713.0, 713.0, 713.0, 714.0, 712.0, 711.0, 711.0, 712.0, 712.0, 712.0, 713.0, 713.0, 712.0, 712.0, 713.0, 712.0, 711.0, 711.0, 712.0, 711.0, 712.0, 713.0, 712.0, 711.0, 712.0, 712.0, 712.0, 711.0, 712.0, 712.0, 712.0, 712.0, 712.0, 714.0, 714.0, 713.0, 713.0, 713.0, 712.0, 713.0, 713.0, 712.0, 712.0, 711.0, 710.0, 711.0, 711.0, 712.0, 712.0, 712.0, 713.0, 713.0, 712.0, 710.0, 711.0, 712.0, 713.0, 713.0, 712.0, 713.0, 713.0, 713.0, 711.0, 712.0, 712.0, 712.0, 712.0, 712.0, 712.0, 713.0, 712.0, 712.0, 712.0, 713.0, 713.0, 713.0, 713.0, 713.0, 713.0, 713.0, 713.0, 714.0, 714.0, 715.0, 714.0, 713.0, 713.0, 713.0, 713.0, 714.0, 713.0, 713.0, 714.0, 714.0, 714.0, 713.0, 713.0, 714.0, 715.0, 715.0, 716.0, 715.0, 713.0, 713.0, 713.0, 712.0, 712.0, 713.0, 713.0, 713.0, 713.0, 712.0, 714.0, 713.0, 712.0, 712.0, 711.0, 712.0, 713.0, 714.0, 714.0, 712.0, 712.0, 712.0, 713.0, 713.0, 712.0, 713.0, 713.0, 714.0, 715.0, 715.0, 714.0, 713.0, 714.0, 714.0, 713.0, 713.0, 713.0, 713.0, 713.0, 713.0, 714.0, 714.0],
      "WindowWidth": [1559.0, 1551.0, 1548.0, 1547.0, 1548.0, 1544.0, 1541.0, 1540.0, 1540.0, 1542.0, 1543.0, 1543.0, 1542.0, 1544.0, 1545.0, 1542.0, 1542.0, 1543.0, 1544.0, 1545.0, 1546.0, 1545.0, 1548.0, 1548.0, 1542.0, 1542.0, 1541.0, 1544.0, 1543.0, 1545.0, 1546.0, 1548.0, 1544.0, 1544.0, 1549.0, 1545.0, 1542.0, 1541.0, 1543.0, 1543.0, 1545.0, 1547.0, 1544.0, 1542.0, 1543.0, 1544.0, 1543.0, 1542.0, 1545.0, 1545.0, 1545.0, 1544.0, 1543.0, 1549.0, 1549.0, 1548.0, 1546.0, 1545.0, 1545.0, 1548.0, 1547.0, 1544.0, 1544.0, 1542.0, 1540.0, 1541.0, 1541.0, 1545.0, 1545.0, 1545.0, 1547.0, 1547.0, 1544.0, 1539.0, 1540.0, 1543.0, 1546.0, 1546.0, 1543.0, 1546.0, 1547.0, 1546.0, 1542.0, 1543.0, 1543.0, 1545.0, 1543.0, 1543.0, 1545.0, 1546.0, 1545.0, 1543.0, 1544.0, 1547.0, 1548.0, 1547.0, 1547.0, 1547.0, 1548.0, 1545.0, 1545.0, 1549.0, 1550.0, 1552.0, 1549.0, 1547.0, 1546.0, 1546.0, 1548.0, 1549.0, 1547.0, 1547.0, 1548.0, 1549.0, 1550.0, 1548.0, 1546.0, 1549.0, 1551.0, 1554.0, 1554.0, 1552.0, 1547.0, 1546.0, 1545.0, 1544.0, 1545.0, 1546.0, 1547.0, 1546.0, 1548.0, 1544.0, 1548.0, 1547.0, 1544.0, 1543.0, 1542.0, 1543.0, 1547.0, 1550.0, 1548.0, 1544.0, 1542.0, 1544.0, 1546.0, 1546.0, 1545.0, 1546.0, 1546.0, 1548.0, 1551.0, 1551.0, 1548.0, 1548.0, 1549.0, 1549.0, 1548.0, 1547.0, 1547.0, 1547.0, 1546.0, 1547.0, 1548.0, 1550.0]
    },
    "slices": {}
  }
}