{
  "AcquisitionMatrixPE": 64,
  "AcquisitionNumber": 1,
  "AcquisitionTime": "11:45:3.497500",
  "BandwidthPerPixelPhaseEncode": 33.967,
  "BaseResolution": 64,
  "CoilCombinationMethod": "Sum of Squares",
  "CoilString": "C:HEA;HEP",
  "ConversionSoftware": "dcm2niix",
  "ConversionSoftwareVersion": "v1.0.20220720",
  "DerivedVendorReportedEchoSpacing": 0.000460005,
  "DeviceSerialNumber": "35193",
  "DwellTime": 3.1e-06,
  "EchoTime": 0.03,
  "EffectiveEchoSpacing": 0.000460005,
  "FlipAngle": 90,
  "HeudiconvVersion": "1.1.6",
  "ImageOrientationPatientDICOM": [0.999705, 0.00872656, -0.0226865, -0.00872432, 0.999962, 0.000197983],
  "ImageOrientationText": "Tra>Sag(-1.3)",
  "ImageType": [
    "ORIGINAL",
    "PRIMARY",
    "M",
    "ND",
    "MOSAIC"
],
  "ImagingFrequency": 123.254,
  "InPlanePhaseEncodingDirectionDICOM": "COL",
  "InstitutionAddress": "Xinjiekouwai Street No 19,Beijing,Haidian District,CN,100875",
  "InstitutionName": "Beijing Normal Universtiy/2773C4/",
  "InstitutionalDepartmentName": "Department",
  "MRAcquisitionType": "2D",
  "MagneticFieldStrength": 3,
  "Manufacturer": "Siemens",
  "ManufacturersModelName": "TrioTim",
  "MatrixCoilMode": "SENSE",
  "Modality": "MR",
  "NonlinearGradientCorrection": false,
  "PartialFourier": 1,
  "PatientPosition": "HFS",
  "PercentPhaseFOV": 100,
  "PercentSampling": 100,
  "PhaseEncodingDirection": "j-",
  "PhaseEncodingSteps": 64,
  "PhaseResolution": 1,
  "PixelBandwidth": 2520,
  "ProcedureStepDescription": "BNU_cst_2015^Guo.TaoMei",
  "ProtocolName": "ge_func_3x3x4_164",
  "PulseSequenceDetails": "%SiemensSeq%\\ep2d_bold",
  "ReceiveCoilName": "HeadMatrix",
  "ReconMatrixPE": 64,
  "RepetitionTime": 2,
  "SAR": 0.141291,
  "ScanOptions": "FS",
  "ScanningSequence": "EP",
  "SequenceName": "*epfid2d1_64",
  "SequenceVariant": "SK",
  "SeriesDescription": "ge_func_3x3x4_164",
  "SeriesNumber": 3,
  "ShimSetting": [-4531, -19391, -9799, 1200, -105, -311, 0, -42],
  "SliceThickness": 4,
  "SliceTiming": [0, 1.035, 0.06, 1.095, 0.1225, 1.155, 0.1825, 1.2175, 0.2425, 1.2775, 0.305, 1.3375, 0.365, 1.4, 0.425, 1.46, 0.4875, 1.52, 0.5475, 1.5825, 0.6075, 1.6425, 0.67, 1.7025, 0.73, 1.765, 0.79, 1.825, 0.8525, 1.885, 0.9125, 1.9475, 0.9725],
  "SoftwareVersions": "syngo MR B17",
  "SpacingBetweenSlices": 4.6,
  "StationName": "MRC35193",
  "TaskName": "LanguageControl",
  "TotalReadoutTime": 0.0289803,
  "TxRefAmp": 354.117,
  "dcmmeta_affine": [
    [-3.1240766048431396, -0.02726348675787449, -0.10436173528432846, 109.2323989868164],
    [-0.02727050520479679, 3.1248810291290283, 2.1834367647244335e-09, -88.57696533203125],
    [-0.07089521735906601, -0.0006186965038068593, 4.59881591796875, -63.19684600830078],
    [0.0, 0.0, 0.0, 1.0]
],
  "dcmmeta_reorient_transform": [
    [0.0, -1.0, 0.0, 63.0],
    [1.0, 0.0, 0.0, 0.0],
    [0.0, 0.0, 1.0, 0.0],
    [0.0, 0.0, 0.0, 1.0]
],
  "dcmmeta_shape": [64, 64, 33, 164],
  "dcmmeta_slice_dim": 2,
  "dcmmeta_version": 0.6,
  "global": {
    "const": {
      "AcquisitionMatrix": [64, 0, 0, 64],
      "AngioFlag": "N",
      "BitsAllocated": 16,
      "BitsStored": 12,
      "Columns": 384,
      "EchoNumbers": 1,
      "EchoTime": 30.0,
      "EchoTrainLength": 1,
      "FlipAngle": 90.0,
      "HighBit": 11,
      "ImageOrientationPatient": [0.99970454197375, 0.00872656191865, -0.0226864689658, -0.0087243157723, 0.9999619228336, 0.00019798288931],
      "ImagePositionPatient": [-603.00491142427, -612.63477750067, -51.991580900511],
      "ImageType": [
        "ORIGINAL",
        "PRIMARY",
        "M",
        "ND",
        "MOSAIC"
],
      "ImagedNucleus": "1H",
      "ImagingFrequency": 123.253626,
      "InPlanePhaseEncodingDirection": "COL",
      "MRAcquisitionType": "2D",
      "MagneticFieldStrength": 3.0,
      "Manufacturer": "SIEMENS",
      "ManufacturerModelName": "TrioTim",
      "Modality": "MR",
      "NumberOfAverages": 1.0,
      "NumberOfPhaseEncodingSteps": 64,
      "PercentPhaseFieldOfView": 100.0,
      "PercentSampling": 100.0,
      "PerformedProcedureStepStartTime": "112511.984000",
      "PhotometricInterpretation": "MONOCHROME2",
      "PixelBandwidth": 2520.0,
      "PixelRepresentation": 0,
      "PixelSpacing": [3.125, 3.125],
      "ProtocolName": "ge_func_3x3x4_164",
      "RepetitionTime": 2000.0,
      "Rows": 384,
      "SAR": 0.14129142566734,
      "SamplesPerPixel": 1,
      "ScanOptions": "FS",
      "ScanningSequence": "EP",
      "SequenceName": "*epfid2d1_64",
      "SequenceVariant": "SK",
      "SeriesDescription": "ge_func_3x3x4_164",
      "SeriesNumber": 3,
      "SeriesTime": "114517.796000",
      "SliceLocation": -65.658771591551,
      "SliceThickness": 4.0,
      "SmallestImagePixelValue": 0,
      "SoftwareVersions": "syngo MR B17",
      "SpacingBetweenSlices": 4.6000001533136,
      "SpecificCharacterSet": "ISO_IR 100",
      "StudyID": "1",
      "StudyTime": "112511.937000",
      "TransmitCoilName": "Body",
      "VariableFlipAngleFlag": "N",
      "WindowCenterWidthExplanation": "Algo1",
      "dBdt": 0.0},
    "slices": {}
  },
  "time": {
    "samples": {
      "AcquisitionNumber": [1, 2, 3, 4, 5, 6, 7, 8, 9, 10, 11, 12, 13, 14, 15, 16, 17, 18, 19, 20, 21, 22, 23, 24, 25, 26, 27, 28, 29, 30, 31, 32, 33, 34, 35, 36, 37, 38, 39, 40, 41, 42, 43, 44, 45, 46, 47, 48, 49, 50, 51, 52, 53, 54, 55, 56, 57, 58, 59, 60, 61, 62, 63, 64, 65, 66, 67, 68, 69, 70, 71, 72, 73, 74, 75, 76, 77, 78, 79, 80, 81, 82, 83, 84, 85, 86, 87, 88, 89, 90, 91, 92, 93, 94, 95, 96, 97, 98, 99, 100, 101, 102, 103, 104, 105, 106, 107, 108, 109, 110, 111, 112, 113, 114, 115, 116, 117, 118, 119, 120, 121, 122, 123, 124, 125, 126, 127, 128, 129, 130, 131, 132, 133, 134, 135, 136, 137, 138, 139, 140, 141, 142, 143, 144, 145, 146, 147, 148, 149, 150, 151, 152, 153, 154, 155, 156, 157, 158, 159, 160, 161, 162, 163, 164],
      "AcquisitionTime": ["114503.497500", "114505.505000", "114507.512500", "114509.522500", "114511.530000", "114513.537500", "114515.545000", "114517.552500", "114519.562500", "114521.570000", "114523.577500", "114525.585000", "114527.592500", "114529.602500", "114531.610000", "114533.617500", "114535.625000", "114537.635000", "114539.642500", "114541.650000", "114543.657500", "114545.665000", "114547.675000", "114549.682500", "114551.690000", "114553.697500", "114555.705000", "114557.715000", "114559.722500", "114601.730000", "114603.737500", "114605.747500", "114607.755000", "114609.762500", "114611.770000", "114613.777500", "114615.787500", "114617.795000", "114619.802500", "114621.810000", "114623.817500", "114625.827500", "114627.835000", "114629.842500", "114631.850000", "114633.860000", "114635.867500", "114637.875000", "114639.882500", "114641.890000", "114643.900000", "114645.907500", "114647.915000", "114649.922500", "114651.930000", "114653.940000", "114655.947500", "114657.955000", "114659.962500", "114701.970000", "114703.980000", "114705.987500", "114707.995000", "114710.002500", "114712.012500", "114714.020000", "114716.027500", "114718.035000", "114720.042500", "114722.052500", "114724.060000", "114726.067500", "114728.075000", "114730.082500", "114732.092500", "114734.100000", "114736.107500", "114738.115000", "114740.125000", "114742.132500", "114744.140000", "114746.147500", "114748.155000", "114750.165000", "114752.172500", "114754.180000", "114756.187500", "114758.195000", "114800.205000", "114802.212500", "114804.220000", "114806.227500", "114808.237500", "114810.245000", "114812.252500", "114814.260000", "114816.267500", "114818.277500", "114820.285000", "114822.292500", "114824.300000", "114826.307500", "114828.317500", "114830.325000", "114832.332500", "114834.340000", "114836.347500", "114838.357500", "114840.365000", "114842.372500", "114844.380000", "114846.390000", "114848.397500", "114850.405000", "114852.412500", "114854.420000", "114856.430000", "114858.437500", "114900.445000", "114902.452500", "114904.460000", "114906.470000", "114908.477500", "114910.485000", "114912.492500", "114914.502500", "114916.510000", "114918.517500", "114920.525000", "114922.532500", "114924.542500", "114926.550000", "114928.557500", "114930.565000", "114932.572500", "114934.582500", "114936.590000", "114938.597500", "114940.605000", "114942.615000", "114944.622500", "114946.630000", "114948.637500", "114950.645000", "114952.655000", "114954.662500", "114956.670000", "114958.677500", "115000.685000", "115002.695000", "115004.702500", "115006.710000", "115008.717500", "115010.725000", "115012.735000", "115014.742500", "115016.750000", "115018.757500", "115020.767500", "115022.775000", "115024.782500", "115026.790000", "115028.797500", "115030.807500"],
      "ContentTime": ["114517.796000", "114517.796000", "114517.796000", "114517.812000", "114517.812000", "114517.812000", "114557.796000", "114557.796000", "114557.796000", "114557.796000", "114557.812000", "114557.812000", "114557.812000", "114557.812000", "114557.828000", "114557.828000", "114557.828000", "114557.828000", "114557.828000", "114557.828000", "114557.828000", "114557.828000", "114557.828000", "114557.843000", "114557.843000", "114557.843000", "114637.796000", "114637.796000", "114637.796000", "114637.796000", "114637.796000", "114637.796000", "114637.812000", "114637.812000", "114637.812000", "114637.812000", "114637.812000", "114637.812000", "114637.812000", "114637.812000", "114637.828000", "114637.828000", "114637.828000", "114637.828000", "114637.828000", "114637.828000", "114717.796000", "114717.796000", "114717.796000", "114717.796000", "114717.796000", "114717.796000", "114717.812000", "114717.812000", "114717.812000", "114717.812000", "114717.812000", "114717.812000", "114717.812000", "114717.812000", "114717.828000", "114717.828000", "114717.828000", "114717.828000", "114717.828000", "114717.828000", "114757.796000", "114757.796000", "114757.796000", "114757.796000", "114757.812000", "114757.812000", "114757.812000", "114757.812000", "114757.812000", "114757.812000", "114757.812000", "114757.812000", "114757.828000", "114757.828000", "114757.843000", "114757.843000", "114757.843000", "114757.843000", "114757.843000", "114757.843000", "114837.796000", "114837.796000", "114837.796000", "114837.812000", "114837.812000", "114837.812000", "114837.812000", "114837.812000", "114837.812000", "114837.812000", "114837.812000", "114837.828000", "114837.828000", "114837.828000", "114837.828000", "114837.828000", "114837.828000", "114837.828000", "114837.828000", "114837.828000", "114917.796000", "114917.796000", "114917.796000", "114917.796000", "114917.796000", "114917.796000", "114917.812000", "114917.812000", "114917.812000", "114917.812000", "114917.812000", "114917.812000", "114917.812000", "114917.812000", "114917.828000", "114917.828000", "114917.828000", "114917.828000", "114917.828000", "114917.828000", "114957.796000", "114957.796000", "114957.796000", "114957.796000", "114957.796000", "114957.812000", "114957.812000", "114957.812000", "114957.828000", "114957.828000", "114957.828000", "114957.828000", "114957.828000", "114957.828000", "114957.828000", "114957.828000", "114957.843000", "114957.843000", "114957.843000", "114957.843000", "115031.875000", "115031.875000", "115031.890000", "115031.890000", "115031.890000", "115031.890000", "115031.890000", "115031.890000", "115031.890000", "115031.890000", "115031.906000", "115031.906000", "115031.906000", "115031.906000", "115031.921000", "115031.921000", "115031.921000", "115031.921000"],
      "InstanceCreationTime": ["114517.796000", "114517.796000", "114517.796000", "114517.812000", "114517.812000", "114517.812000", "114557.796000", "114557.796000", "114557.796000", "114557.796000", "114557.812000", "114557.812000", "114557.812000", "114557.812000", "114557.828000", "114557.828000", "114557.828000", "114557.828000", "114557.828000", "114557.828000", "114557.828000", "114557.828000", "114557.828000", "114557.843000", "114557.843000", "114557.843000", "114637.796000", "114637.796000", "114637.796000", "114637.796000", "114637.796000", "114637.796000", "114637.812000", "114637.812000", "114637.812000", "114637.812000", "114637.812000", "114637.812000", "114637.812000", "114637.812000", "114637.828000", "114637.828000", "114637.828000", "114637.828000", "114637.828000", "114637.828000", "114717.796000", "114717.796000", "114717.796000", "114717.796000", "114717.796000", "114717.796000", "114717.812000", "114717.812000", "114717.812000", "114717.812000", "114717.812000", "114717.812000", "114717.812000", "114717.812000", "114717.828000", "114717.828000", "114717.828000", "114717.828000", "114717.828000", "114717.828000", "114757.796000", "114757.796000", "114757.796000", "114757.796000", "114757.812000", "114757.812000", "114757.812000", "114757.812000", "114757.812000", "114757.812000", "114757.812000", "114757.812000", "114757.828000", "114757.828000", "114757.843000", "114757.843000", "114757.843000", "114757.843000", "114757.843000", "114757.843000", "114837.796000", "114837.796000", "114837.796000", "114837.812000", "114837.812000", "114837.812000", "114837.812000", "114837.812000", "114837.812000", "114837.812000", "114837.812000", "114837.828000", "114837.828000", "114837.828000", "114837.828000", "114837.828000", "114837.828000", "114837.828000", "114837.828000", "114837.828000", "114917.796000", "114917.796000", "114917.796000", "114917.796000", "114917.796000", "114917.796000", "114917.812000", "114917.812000", "114917.812000", "114917.812000", "114917.812000", "114917.812000", "114917.812000", "114917.812000", "114917.828000", "114917.828000", "114917.828000", "114917.828000", "114917.828000", "114917.828000", "114957.796000", "114957.796000", "114957.796000", "114957.796000", "114957.796000", "114957.812000", "114957.812000", "114957.812000", "114957.828000", "114957.828000", "114957.828000", "114957.828000", "114957.828000", "114957.828000", "114957.828000", "114957.828000", "114957.843000", "114957.843000", "114957.843000", "114957.843000", "115031.875000", "115031.875000", "115031.890000", "115031.890000", "115031.890000", "115031.890000", "115031.890000", "115031.890000", "115031.890000", "115031.890000", "115031.906000", "115031.906000", "115031.906000", "115031.906000", "115031.921000", "115031.921000", "115031.921000", "115031.921000"],
      "InstanceNumber": [1, 2, 3, 4, 5, 6, 7, 8, 9, 10, 11, 12, 13, 14, 15, 16, 17, 18, 19, 20, 21, 22, 23, 24, 25, 26, 27, 28, 29, 30, 31, 32, 33, 34, 35, 36, 37, 38, 39, 40, 41, 42, 43, 44, 45, 46, 47, 48, 49, 50, 51, 52, 53, 54, 55, 56, 57, 58, 59, 60, 61, 62, 63, 64, 65, 66, 67, 68, 69, 70, 71, 72, 73, 74, 75, 76, 77, 78, 79, 80, 81, 82, 83, 84, 85, 86, 87, 88, 89, 90, 91, 92, 93, 94, 95, 96, 97, 98, 99, 100, 101, 102, 103, 104, 105, 106, 107, 108, 109, 110, 111, 112, 113, 114, 115, 116, 117, 118, 119, 120, 121, 122, 123, 124, 125, 126, 127, 128, 129, 130, 131, 132, 133, 134, 135, 136, 137, 138, 139, 140, 141, 142, 143, 144, 145, 146, 147, 148, 149, 150, 151, 152, 153, 154, 155, 156, 157, 158, 159, 160, 161, 162, 163, 164],
      "LargestImagePixelValue": [1967, 1877, 1853, 1849, 1816, 1848, 1833, 1976, 1834, 1851, 1861, 2019, 1821, 1843, 1841, 1862, 1830, 1842, 1856, 1855, 1846, 1837, 1868, 1845, 1837, 1840, 1834, 1830, 1861, 1844, 1851, 1836, 1844, 1849, 1847, 1855, 1838, 1862, 1831, 1833, 1846, 1850, 1834, 1851, 1846, 1839, 1845, 1853, 1848, 1838, 1839, 1862, 1855, 1839, 1845, 1850, 1840, 1842, 1973, 1842, 1850, 1866, 1872, 1834, 1850, 1865, 1844, 1832, 1843, 1838, 1845, 1860, 1850, 1838, 1845, 1834, 1862, 1847, 1855, 1839, 1834, 1833, 1845, 1848, 1874, 1844, 1835, 1826, 1834, 1831, 1839, 1844, 1830, 1831, 1821, 1835, 1829, 1833, 1841, 1844, 1824, 1843, 1843, 1830, 1829, 1826, 1845, 1846, 1844, 1873, 1828, 1834, 1849, 1852, 1847, 1828, 1839, 1849, 1842, 1836, 1847, 1843, 1900, 1835, 1818, 1842, 1848, 1848, 1851, 1843, 1883, 1904, 1856, 1829, 1827, 1834, 1857, 1844, 1852, 1855, 1842, 1850, 1865, 1895, 1858, 1836, 1853, 1894, 1844, 1845, 1854, 1842, 1841, 1889, 1852, 1859, 1860, 1860, 1897, 1888, 1890, 1876, 1882, 1884],
      "WindowCenter": [759.0, 757.0, 756.0, 756.0, 755.0, 754.0, 754.0, 754.0, 753.0, 752.0, 751.0, 752.0, 751.0, 751.0, 751.0, 752.0, 752.0, 752.0, 752.0, 752.0, 751.0, 751.0, 753.0, 752.0, 752.0, 751.0, 751.0, 751.0, 753.0, 752.0, 752.0, 751.0, 751.0, 751.0, 752.0, 752.0, 752.0, 751.0, 751.0, 751.0, 752.0, 753.0, 752.0, 752.0, 752.0, 750.0, 749.0, 749.0, 750.0, 750.0, 752.0, 752.0, 753.0, 752.0, 752.0, 753.0, 751.0, 751.0, 752.0, 751.0, 752.0, 752.0, 752.0, 752.0, 752.0, 752.0, 751.0, 752.0, 751.0, 752.0, 753.0, 752.0, 751.0, 750.0, 750.0, 750.0, 751.0, 752.0, 752.0, 751.0, 753.0, 752.0, 752.0, 751.0, 750.0, 750.0, 751.0, 751.0, 751.0, 751.0, 751.0, 752.0, 751.0, 751.0, 751.0, 751.0, 751.0, 751.0, 750.0, 751.0, 751.0, 751.0, 751.0, 751.0, 751.0, 751.0, 751.0, 752.0, 752.0, 751.0, 751.0, 750.0, 750.0, 750.0, 750.0, 750.0, 751.0, 753.0, 752.0, 752.0, 751.0, 750.0, 752.0, 751.0, 751.0, 751.0, 751.0, 751.0, 752.0, 752.0, 754.0, 754.0, 753.0, 752.0, 751.0, 750.0, 750.0, 749.0, 750.0, 750.0, 751.0, 751.0, 752.0, 754.0, 754.0, 753.0, 752.0, 752.0, 751.0, 752.0, 751.0, 752.0, 753.0, 753.0, 755.0, 754.0, 754.0, 754.0, 755.0, 754.0, 753.0, 753.0, 753.0, 752.0],
      "WindowWidth": [1633.0, 1625.0, 1623.0, 1622.0, 1619.0, 1618.0, 1617.0, 1618.0, 1616.0, 1613.0, 1611.0, 1614.0, 1610.0, 1609.0, 1612.0, 1613.0, 1614.0, 1613.0, 1613.0, 1612.0, 1611.0, 1611.0, 1615.0, 1613.0, 1613.0, 1611.0, 1610.0, 1612.0, 1614.0, 1614.0, 1612.0, 1610.0, 1611.0, 1610.0, 1612.0, 1612.0, 1612.0, 1610.0, 1610.0, 1610.0, 1612.0, 1616.0, 1613.0, 1614.0, 1613.0, 1608.0, 1606.0, 1605.0, 1607.0, 1608.0, 1613.0, 1614.0, 1614.0, 1614.0, 1615.0, 1615.0, 1612.0, 1611.0, 1612.0, 1611.0, 1614.0, 1612.0, 1614.0, 1613.0, 1613.0, 1612.0, 1610.0, 1612.0, 1611.0, 1612.0, 1614.0, 1614.0, 1610.0, 1608.0, 1608.0, 1608.0, 1611.0, 1612.0, 1614.0, 1611.0, 1615.0, 1612.0, 1612.0, 1609.0, 1608.0, 1607.0, 1609.0, 1609.0, 1610.0, 1609.0, 1610.0, 1611.0, 1610.0, 1610.0, 1609.0, 1611.0, 1609.0, 1608.0, 1607.0, 1609.0, 1609.0, 1609.0, 1609.0, 1610.0, 1610.0, 1610.0, 1610.0, 1613.0, 1612.0, 1611.0, 1609.0, 1606.0, 1607.0, 1608.0, 1609.0, 1608.0, 1611.0, 1614.0, 1613.0, 1612.0, 1611.0, 1608.0, 1612.0, 1611.0, 1610.0, 1610.0, 1610.0, 1609.0, 1612.0, 1613.0, 1618.0, 1618.0, 1616.0, 1613.0, 1609.0, 1607.0, 1607.0, 1606.0, 1608.0, 1609.0, 1610.0, 1609.0, 1613.0, 1616.0, 1617.0, 1614.0, 1613.0, 1613.0, 1611.0, 1611.0, 1611.0, 1612.0, 1614.0, 1615.0, 1620.0, 1617.0, 1618.0, 1617.0, 1620.0, 1618.0, 1616.0, 1614.0, 1616.0, 1613.0]
    },
    "slices": {}
  }
}